rel_ms,value_mv,normalized
0.0,0.01263739,-0.18505660
3.90625,0.02144061,-0.32224852
7.8125,-0.03039407,-0.39898407
11.71875,-0.00128745,-0.40047237
15.625,0.01265546,-0.35327926
19.53125,0.01683920,-0.30100879
23.4375,0.00858160,-0.27399972
27.34375,0.01882418,-0.27870947
31.25,0.00446084,-0.30638957
35.15625,0.00771911,-0.34449211
39.0625,0.00337127,-0.38102102
42.96875,-0.01153743,-0.40435988
46.875,-0.00868826,-0.40536177
50.78125,0.00614866,-0.38204703
54.6875,-0.00524640,-0.34180418
58.59375,0.01709680,-0.29965273
62.5,0.01746898,-0.27305874
66.40625,0.02366787,-0.27326146
70.3125,0.00189156,-0.29834965
74.21875,0.01893089,-0.33462274
78.125,-0.00842190,-0.36558643
82.03125,-0.00722581,-0.38332954
85.9375,0.00366725,-0.39364991
89.84375,0.00619033,-0.40639821
93.75,-0.01625325,-0.41969961
97.65625,-0.01771275,-0.41993347
101.5625,0.00743810,-0.39884844
105.46875,-0.00704799,-0.36478913
109.375,0.01791952,-0.33519876
113.28125,0.00827464,-0.32110789
117.1875,0.00734701,-0.32002655
121.09375,0.00628268,-0.32280234
125.0,0.01464751,-0.32511657
128.90625,0.00218554,-0.33050716
132.8125,0.01716980,-0.34326524
136.71875,-0.00204877,-0.36054823
140.625,0.00168205,-0.37295207
144.53125,-0.00366438,-0.37334749
148.4375,0.01179310,-0.36349362
152.34375,0.00517108,-0.35093355
156.25,-0.00548760,-0.34190553
160.15625,0.02900111,-0.33769235
164.0625,0.00073274,-0.33418936
167.96875,0.00382028,-0.32601067
171.875,0.01006423,-0.31503952
175.78125,0.02642424,-0.31167218
179.6875,0.00378979,-0.32318148
183.59375,0.01412635,-0.34364191
187.5,0.00699124,-0.35806406
191.40625,-0.01164251,-0.35629061
195.3125,0.01554385,-0.34400454
199.21875,0.01840467,-0.33930266
203.125,0.00339380,-0.35568547
207.03125,0.00620481,-0.38841134
210.9375,-0.01150957,-0.41775095
214.84375,-0.01165325,-0.42511940
218.75,0.00203966,-0.40742126
222.65625,0.01436465,-0.37681818
226.5625,0.00133399,-0.34793910
230.46875,0.01058863,-0.32790670
234.375,0.01881337,-0.31705621
238.28125,0.00846602,-0.31425807
242.1875,0.01432912,-0.32022238
246.09375,0.02493237,-0.33613247
250.0,-0.00726512,-0.35867974
253.90625,0.01675771,-0.37863761
257.8125,-0.01462487,-0.38750643
261.71875,0.01336818,-0.38560602
265.625,0.01087693,-0.38125244
269.53125,0.00225955,-0.38095972
273.4375,-0.00367999,-0.38293013
277.34375,0.00916328,-0.38126564
281.25,0.00590766,-0.37331423
285.15625,0.01329379,-0.36149547
289.0625,0.00300543,-0.35003448
292.96875,0.02284091,-0.33995017
296.875,0.00701992,-0.32609403
300.78125,0.01985018,-0.30128634
304.6875,0.02385498,-0.26480466
308.59375,0.04990471,-0.22312589
312.5,0.02394486,-0.18131895
316.40625,0.04510969,-0.13897325
320.3125,0.07324020,-0.09434095
324.21875,0.06060918,-0.04607305
328.125,0.06317838,0.00739002
332.03125,0.09059494,0.06411643
335.9375,0.09195804,0.11720744
339.84375,0.11227301,0.16139647
343.75,0.09616069,0.19748229
347.65625,0.11223966,0.22605333
351.5625,0.11829020,0.24008547
355.46875,0.12066055,0.22891051
359.375,0.09063646,0.18822016
363.28125,0.11472799,0.12365440
367.1875,0.07905030,0.04821805
371.09375,0.06290883,-0.02214498
375.0,0.06030964,-0.07566061
378.90625,0.06432129,-0.11041984
382.8125,0.04971327,-0.13286717
386.71875,0.05070776,-0.15264200
390.625,0.04416859,-0.17864875
394.53125,0.03589959,-0.21620427
398.4375,0.02396720,-0.26570699
402.34375,0.04475462,-0.32247633
406.25,-0.00672246,-0.37711942
410.15625,-0.00327006,-0.42043504
414.0625,0.00977838,-0.45045045
417.96875,-0.00037220,-0.47056755
421.875,-0.01676279,-0.48134050
425.78125,0.00387067,-0.47860658
429.6875,0.00412387,-0.45750502
433.59375,-0.01643891,-0.41740039
437.5,0.02310625,-0.36843833
441.40625,0.02807873,-0.33214670
445.3125,0.02632715,-0.32906106
449.21875,0.00272020,-0.36669964
453.125,0.00439812,-0.44160879
457.03125,-0.02243878,-0.54623371
460.9375,-0.02366250,-0.66503078
464.84375,-0.05202638,-0.76027173
468.75,-0.04499679,-0.76139039
472.65625,-0.02906273,-0.57182992
476.5625,0.06333055,-0.09795518
480.46875,0.19938241,0.70879972
484.375,0.40078646,1.81416166
488.28125,0.59576893,3.08291698
492.1875,0.81188464,4.29032850
496.09375,0.99650478,5.17205906
500.0,1.04096866,5.50835609
503.90625,0.99176955,5.20683622
507.8125,0.82890773,4.33668423
511.71875,0.60549986,3.09679723
515.625,0.37938052,1.73981977
519.53125,0.16472371,0.49205461
523.4375,-0.00147939,-0.49864382
527.34375,-0.13289818,-1.17687511
531.25,-0.17020838,-1.56179643
535.15625,-0.21905974,-1.71117496
539.0625,-0.20599593,-1.68838978
542.96875,-0.19166291,-1.54927218
546.875,-0.14327297,-1.34469831
550.78125,-0.11484207,-1.12210643
554.6875,-0.07454997,-0.91889012
558.59375,-0.04272532,-0.75449598
562.5,-0.02851987,-0.63024694
566.40625,-0.01045207,-0.53827447
570.3125,0.00481308,-0.47123566
574.21875,0.01104036,-0.42456725
578.125,0.00392050,-0.39389169
582.03125,0.04587676,-0.37352630
585.9375,0.00707983,-0.35690257
589.84375,0.01623791,-0.33996657
593.75,0.05032020,-0.32514098
597.65625,0.01425103,-0.31865126
601.5625,0.03273378,-0.32446563
605.46875,0.03307470,-0.34205320
609.375,0.02451134,-0.36481863
613.28125,0.01202064,-0.38006556
617.1875,0.01302406,-0.37742829
621.09375,0.03442698,-0.35794610
625.0,0.04283987,-0.32955912
628.90625,0.01562865,-0.29601446
632.8125,0.04752890,-0.25724033
636.71875,0.04255360,-0.21792439
640.625,0.06640198,-0.18626237
644.53125,0.06360899,-0.16187088
648.4375,0.05830880,-0.13023601
652.34375,0.06989432,-0.07419827
656.25,0.08323652,0.00770054
660.15625,0.10715853,0.09580314
664.0625,0.13649756,0.16498335
667.96875,0.11380683,0.20710060
671.875,0.12106121,0.23644379
675.78125,0.13866681,0.27338487
679.6875,0.14174347,0.32623500
683.59375,0.16118963,0.38858911
687.5,0.17007543,0.45029902
691.40625,0.17749277,0.50972140
695.3125,0.18006867,0.57523495
699.21875,0.20363474,0.65470767
703.125,0.22452493,0.74545962
707.03125,0.22629248,0.83535415
710.9375,0.25485289,0.91173655
714.84375,0.25873822,0.96975589
718.75,0.25592569,1.01483810
722.65625,0.28761086,1.05765378
726.5625,0.26156613,1.10462737
730.46875,0.29637522,1.15144932
734.375,0.31069928,1.18788886
738.28125,0.29023847,1.21109891
742.1875,0.29559338,1.22909117
746.09375,0.31025276,1.24782515
750.0,0.31694859,1.26162136
753.90625,0.30445293,1.25986147
757.8125,0.30002037,1.23722720
761.71875,0.30473673,1.19541919
765.625,0.29212409,1.14072657
769.53125,0.26851925,1.08196628
773.4375,0.27361578,1.02688384
777.34375,0.26748911,0.97867769
781.25,0.24052563,0.93496531
785.15625,0.25335827,0.88739747
789.0625,0.22901621,0.82456881
792.96875,0.23564658,0.74224371
796.875,0.19726683,0.65275991
800.78125,0.19233276,0.57986242
804.6875,0.17378336,0.53959453
808.59375,0.19467691,0.52524388
812.5,0.18264852,0.51159555
816.40625,0.17329291,0.47319543
820.3125,0.16199841,0.39946455
824.21875,0.14415833,0.29806867
828.125,0.13351859,0.18893468
832.03125,0.09240504,0.09272793
835.9375,0.10730537,0.01969467
839.84375,0.08852782,-0.03198255
843.75,0.08246142,-0.06893702
847.65625,0.06399061,-0.09842030
851.5625,0.08753820,-0.12877330
855.46875,0.06734280,-0.16504286
859.375,0.04186253,-0.20407104
863.28125,0.06062361,-0.24068579
867.1875,0.04886845,-0.27679002
871.09375,0.03305051,-0.31859925
875.0,0.03820076,-0.36619991
878.90625,0.02919347,-0.40818781
882.8125,0.00804006,-0.42789006
886.71875,0.01474699,-0.41911918
890.625,0.03691544,-0.39628556
894.53125,0.03306584,-0.38350472
898.4375,0.03055744,-0.39217889
902.34375,0.01180554,-0.41274241
906.25,0.01759962,-0.42850825
910.15625,0.02462487,-0.43302882
914.0625,0.03137864,-0.43140575
917.96875,0.01235969,-0.42944521
921.875,0.00925137,-0.42879793
925.78125,0.03523659,-0.43105230
929.6875,0.02202397,-0.43755707
933.59375,0.01638565,-0.44367912
937.5,0.01186011,-0.44102120
941.40625,0.01268036,-0.42899567
945.3125,0.03945297,-0.41865358
949.21875,0.03196539,-0.41872194
953.125,0.01523831,-0.42077860
957.03125,0.00514256,-0.40801996
960.9375,0.04022333,-0.38046515
964.84375,0.03894855,-0.36213639
968.75,0.03452849,-0.37742722
972.65625,0.03015745,-0.42353028
976.5625,-0.00260079,-0.47043034
980.46875,0.00454023,-0.48914897
984.375,0.02680516,-0.47760081
988.28125,0.01660115,-0.45665488
992.1875,0.02308132,-0.44564688
996.09375,0.01370684,-0.44749686
1000.0,0.01212501,-0.45403606
1003.90625,0.02664631,-0.45713875
1007.8125,0.01519500,-0.45232180
1011.71875,0.01996700,-0.43776193
1015.625,0.02306088,-0.41631311
1019.53125,0.02277208,-0.39813775
1023.4375,0.03389123,-0.39647421
1027.34375,0.03640170,-0.41648874
1031.25,0.00355518,-0.44795889
1035.15625,0.01673619,-0.47201598
1039.0625,0.01217669,-0.47581059
1042.96875,0.02899412,-0.45979109
1046.875,0.00710268,-0.43489119
1050.78125,0.02921524,-0.41679582
1054.6875,0.02830695,-0.41791013
1058.59375,0.02682376,-0.43738768
1062.5,0.00819192,-0.46003962
1066.40625,0.01728084,-0.46998209
1070.3125,0.00688169,-0.46581316
1074.21875,0.02459843,-0.46044934
1078.125,0.03128877,-0.46543410
1082.03125,0.00157415,-0.47702456
1085.9375,0.00990881,-0.48065415
1089.84375,0.01789501,-0.46832335
1093.75,0.01353547,-0.44767860
1097.65625,0.03792717,-0.43328172
1101.5625,0.01844082,-0.43062398
1105.46875,0.02350414,-0.43036765
1109.375,0.00758707,-0.42041841
1113.28125,0.04013894,-0.40271679
1117.1875,0.02463541,-0.39399427
1121.09375,0.03340197,-0.40863305
1125.0,0.02719807,-0.44191962
1128.90625,0.00345896,-0.47020531
1132.8125,0.01333708,-0.46808946
1136.71875,0.02163382,-0.42682153
1140.625,0.04838110,-0.35713577
1144.53125,0.04332541,-0.27753860
1148.4375,0.06232521,-0.20293918
1152.34375,0.06922825,-0.14152177
1156.25,0.07798027,-0.09591186
1160.15625,0.09544393,-0.06355617
1164.0625,0.09580355,-0.03597736
1167.96875,0.08237453,-0.00135416
1171.875,0.10113441,0.04702409
1175.78125,0.13469344,0.10409876
1179.6875,0.10526690,0.15515755
1183.59375,0.13551262,0.18218613
1187.5,0.13758855,0.17192601
1191.40625,0.10688138,0.12582074
1195.3125,0.11235152,0.06080108
1199.21875,0.08391959,-0.00507298
1203.125,0.10135601,-0.06584115
1207.03125,0.07342697,-0.12451487
1210.9375,0.05754402,-0.18224020
1214.84375,0.05934402,-0.23560247
1218.75,0.05000266,-0.28112531
1222.65625,0.04078971,-0.31712347
1226.5625,0.04352660,-0.34178656
1230.46875,0.03358357,-0.35278803
1234.375,0.02313874,-0.35180107
1238.28125,0.03893391,-0.34989777
1242.1875,0.05388791,-0.36257324
1246.09375,0.02358524,-0.39411524
1250.0,0.01288130,-0.43121088
1253.90625,0.00837725,-0.45736849
1257.8125,0.02664373,-0.47035274
1261.71875,0.01598593,-0.48106873
1265.625,0.01889569,-0.49762574
1269.53125,-0.00550399,-0.51486856
1273.4375,0.00448158,-0.52108312
1277.34375,0.00330384,-0.51394546
1281.25,0.02647104,-0.50723958
1285.15625,0.00696066,-0.52124387
1289.0625,-0.02941644,-0.57056642
1292.96875,-0.00948503,-0.65961730
1296.875,-0.02039004,-0.77176571
1300.78125,-0.03026474,-0.84539336
1304.6875,-0.06737763,-0.76770264
1308.59375,0.02492728,-0.41427603
1312.5,0.14990674,0.28900003
1316.40625,0.32621926,1.32553661
1320.3125,0.53824711,2.57969022
1324.21875,0.74701518,3.84831333
1328.125,0.94684821,4.87469292
1332.03125,1.04139721,5.41536283
1335.9375,1.02989566,5.32494879
1339.84375,0.89884561,4.61508656
1343.75,0.68091673,3.45001793
1347.65625,0.45826864,2.08186746
1351.5625,0.21358205,0.76352715
1355.46875,0.03648565,-0.32123885
1359.375,-0.08746067,-1.08921778
1363.28125,-0.16379645,-1.54768097
1367.1875,-0.21651225,-1.75699246
1371.09375,-0.20612760,-1.78997314
1375.0,-0.19889788,-1.70607936
1378.90625,-0.18174541,-1.54630578
1382.8125,-0.12834877,-1.34215260
1386.71875,-0.09925196,-1.12260354
1390.625,-0.06495601,-0.91236496
1394.53125,-0.04347926,-0.73063952
1398.4375,0.00919622,-0.59282959
1402.34375,0.01522189,-0.50584036
1406.25,-0.00795684,-0.46127310
1410.15625,0.02843068,-0.44032213
1414.0625,0.02869944,-0.42524910
1417.96875,0.01406503,-0.40503776
1421.875,0.02545206,-0.37838846
1425.78125,0.04720237,-0.35549113
1429.6875,0.02468910,-0.35076129
1433.59375,0.02747621,-0.37039837
1437.5,0.03725437,-0.40618110
1441.40625,0.01299321,-0.43831432
1445.3125,0.01212618,-0.44680703
1449.21875,0.01263284,-0.42684129
1453.125,0.03120499,-0.39308566
1457.03125,0.04558350,-0.36452931
1460.9375,0.02821612,-0.34546629
1464.84375,0.02597032,-0.32483676
1468.75,0.04939124,-0.29209563
1472.65625,0.04751283,-0.24811995
1476.5625,0.06475156,-0.20197426
1480.46875,0.06209935,-0.16291097
1484.375,0.06818536,-0.13496722
1488.28125,0.07673595,-0.11300562
1492.1875,0.08614677,-0.08087179
1496.09375,0.08274568,-0.01868819
1500.0,0.09001160,0.07844169
1503.90625,0.13233253,0.18722051
1507.8125,0.16065478,0.27123603
1511.71875,0.14781556,0.31527025
1515.625,0.12603129,0.33807221
1519.53125,0.15750831,0.36781055
1523.4375,0.18322709,0.41484922
1527.34375,0.16144881,0.47283030
1531.25,0.18702419,0.53486639
1535.15625,0.19984090,0.60146272
1539.0625,0.20540553,0.67748386
1542.96875,0.21763797,0.76375633
1546.875,0.25065160,0.85089374
1550.78125,0.24321501,0.92395496
1554.6875,0.25529134,0.97426033
1558.59375,0.28712580,1.00704837
1562.5,0.26377681,1.03953147
1566.40625,0.25732625,1.08675671
1570.3125,0.29321983,1.14308751
1574.21875,0.31343418,1.18315899
1578.125,0.29426637,1.18825424
1582.03125,0.29649073,1.16803789
1585.9375,0.27701190,1.15139902
1589.84375,0.27947313,1.15641701
1593.75,0.30520475,1.17073607
1597.65625,0.29827285,1.16280341
1601.5625,0.28447494,1.11257267
1605.46875,0.26275828,1.02962911
1609.375,0.24813129,0.94248444
1613.28125,0.24085730,0.87373632
1617.1875,0.22945331,0.82584238
1621.09375,0.24029273,0.78729039
1625.0,0.21226396,0.74782950
1628.90625,0.20411138,0.70438987
1632.8125,0.20642141,0.65481937
1636.71875,0.19402654,0.59353799
1640.625,0.17432299,0.51599002
1644.53125,0.16734192,0.42416173
1648.4375,0.14970012,0.32754868
1652.34375,0.11471651,0.23961510
1656.25,0.12572733,0.17032118
1660.15625,0.11072483,0.12017269
1664.0625,0.10120227,0.08180813
1667.96875,0.09860305,0.04608561
1671.875,0.07971374,0.00649341
1675.78125,0.09265715,-0.03901707
1679.6875,0.06796343,-0.08742534
1683.59375,0.06471340,-0.13211653
1687.5,0.05999763,-0.16715208
1691.40625,0.04788338,-0.19207193
1695.3125,0.05225247,-0.21392395
1699.21875,0.04863393,-0.24340931
1703.125,0.04272192,-0.28542185
1707.03125,0.02266636,-0.33316392
1710.9375,0.01680859,-0.37510166
1714.84375,0.01732294,-0.40744171
1718.75,0.02198409,-0.43522370
1722.65625,-0.00292454,-0.46121147
1726.5625,0.00738241,-0.47933435
1730.46875,0.00195888,-0.48066214
1734.375,0.00618779,-0.46275550
1738.28125,0.00191230,-0.43375492
1742.1875,0.02171199,-0.41000858
1746.09375,0.01637107,-0.40694183
1750.0,0.02171946,-0.42625225
1753.90625,-0.00234362,-0.45075983
1757.8125,-0.00040124,-0.45675388
1761.71875,0.00489926,-0.43592775
1765.625,0.02800849,-0.40359864
1769.53125,0.02792653,-0.38243201
1773.4375,0.00001522,-0.38161105
1777.34375,0.01476963,-0.39536640
1781.25,0.03279537,-0.41406783
1785.15625,-0.00557297,-0.42901415
1789.0625,0.00432707,-0.43355253
1792.96875,0.02206557,-0.42732483
1796.875,0.01499804,-0.41592059
1800.78125,-0.00579857,-0.40575436
1804.6875,0.02429311,-0.40308750
1808.59375,0.01771723,-0.41266808
1812.5,0.01409809,-0.43058768
1816.40625,-0.00926473,-0.44340694
1820.3125,0.00354441,-0.44072658
1824.21875,0.02125337,-0.42573956
1828.125,0.01119748,-0.40997532
1832.03125,0.01477733,-0.40153956
1835.9375,0.00184874,-0.40146589
1839.84375,0.02310830,-0.40711355
1843.75,0.00192773,-0.41499409
1847.65625,0.01579797,-0.42240021
1851.5625,0.00847874,-0.42912328
1855.46875,-0.00711704,-0.43751311
1859.375,0.02219245,-0.45009905
1863.28125,-0.01090962,-0.46688932
1867.1875,-0.00473867,-0.48563313
1871.09375,0.00568897,-0.50376248
1875.0,-0.01302122,-0.51732558
1878.90625,-0.01796263,-0.52015156
1882.8125,0.00217956,-0.50777143
1886.71875,-0.00166875,-0.48008832
1890.625,0.00002630,-0.44024533
1894.53125,0.00923077,-0.39593562
1898.4375,0.03021950,-0.36117584
1902.34375,-0.00206964,-0.35167801
1906.25,0.03221605,-0.37638488
1910.15625,0.00558325,-0.43028596
1914.0625,0.00139847,-0.49173686
1917.96875,-0.03002758,-0.53113347
1921.875,-0.01607786,-0.53046721
1925.78125,0.00535977,-0.49637273
1929.6875,0.00885278,-0.45272416
1933.59375,-0.00783194,-0.42307055
1937.5,0.00592348,-0.42041713
1941.40625,0.01334673,-0.44390988
1945.3125,-0.00375262,-0.47676566
1949.21875,-0.01566470,-0.49341145
1953.125,-0.00679064,-0.47875643
1957.03125,0.00308573,-0.44117618
1960.9375,0.01253119,-0.40314656
1964.84375,0.02163177,-0.37894532
1968.75,0.00531101,-0.36225837
1972.65625,0.02204042,-0.33458748
1976.5625,0.02476311,-0.28426009
1980.46875,0.03561144,-0.21782492
1984.375,0.05666747,-0.15478247
1988.28125,0.06796366,-0.11049721
1992.1875,0.05597014,-0.08289798
1996.09375,0.06363500,-0.05692292
2000.0,0.07131476,-0.02135720
2003.90625,0.08087856,0.02095959
2007.8125,0.08825068,0.05757951
2011.71875,0.09520941,0.07775634
2015.625,0.09292454,0.08132891
2019.53125,0.08541390,0.07956226
2023.4375,0.08118642,0.08482714
2027.34375,0.09068567,0.09562460
2031.25,0.11227484,0.09421258
2035.15625,0.08125632,0.06357206
2039.0625,0.07311242,0.00495744
2042.96875,0.05995535,-0.06509966
2046.875,0.04438796,-0.13306350
2050.78125,0.06146296,-0.19856611
2054.6875,0.02558153,-0.26570123
2058.59375,0.01056950,-0.33071733
2062.5,0.00143798,-0.38447201
2066.40625,0.01357088,-0.42321405
2070.3125,-0.00457239,-0.45011774
2074.21875,-0.00614264,-0.46811593
2078.125,-0.00841606,-0.47669592
2082.03125,-0.01548962,-0.47584713
2085.9375,0.00107618,-0.47065657
2089.84375,-0.02199737,-0.47054952
2093.75,0.02493731,-0.48132706
2097.65625,-0.03609918,-0.49649450
2101.5625,-0.02002636,-0.50116223
2105.46875,-0.00289213,-0.48772565
2109.375,0.00072029,-0.46384686
2113.28125,-0.01000470,-0.44604114
2117.1875,-0.00627882,-0.45229581
2121.09375,-0.01559563,-0.49853957
2125.0,-0.02997749,-0.59113348
2128.90625,-0.04289556,-0.71342176
2132.8125,-0.06281495,-0.81265378
2136.71875,-0.06510784,-0.79635316
2140.625,-0.02586028,-0.54787487
2144.53125,0.08238909,0.03490241
2148.4375,0.22873229,0.98618782
2152.34375,0.44876373,2.22618103
2156.25,0.69178283,3.55281711
2160.15625,0.88119519,4.68997860
2164.0625,1.01847506,5.37641764
2167.96875,1.01595104,5.45308161
2171.875,0.92642325,4.91035128
2175.78125,0.74207574,3.88034725
2179.6875,0.50715131,2.58360815
2183.59375,0.27979389,1.25531065
2187.5,0.09404165,0.08256605
2191.40625,-0.07528233,-0.82507837
2195.3125,-0.17865980,-1.43274140
2199.21875,-0.22173823,-1.75947785
2203.125,-0.26181069,-1.85341918
2207.03125,-0.23495561,-1.77353323
2210.9375,-0.19153467,-1.58066308
2214.84375,-0.16661982,-1.33197236
2218.75,-0.11839820,-1.07699740
2222.65625,-0.08292047,-0.85644162
2226.5625,-0.04325509,-0.69862485
2230.46875,-0.03021991,-0.61046332
2234.375,-0.01992598,-0.57214737
2238.28125,-0.05400652,-0.54887819
2242.1875,-0.01569701,-0.51650614
2246.09375,0.00158390,-0.47619632
2250.0,-0.00727387,-0.44301477
2253.90625,-0.01360922,-0.42628914
2257.8125,0.00705530,-0.42313844
2261.71875,-0.01353095,-0.42339468
2265.625,-0.00601273,-0.41772240
2269.53125,0.00750908,-0.40509909
2273.4375,-0.00541689,-0.39336878
2277.34375,0.00457391,-0.39080936
2281.25,0.00434105,-0.39636302
2285.15625,-0.00745111,-0.39786348
2289.0625,0.00339348,-0.38144368
2292.96875,0.00851898,-0.34475446
2296.875,0.00878375,-0.30119699
2300.78125,0.03382198,-0.26959240
2304.6875,0.02510410,-0.25633663
2308.59375,0.02294322,-0.24670431
2312.5,0.01976615,-0.21750334
2316.40625,0.03900801,-0.16017000
2320.3125,0.06566903,-0.08850347
2324.21875,0.05397604,-0.02368308
2328.125,0.07502728,0.02380244
2332.03125,0.08034027,0.05805000
2335.9375,0.07823249,0.09026257
2339.84375,0.08313702,0.12995636
2343.75,0.11163212,0.18140872
2347.65625,0.09601860,0.24580362
2351.5625,0.13449402,0.32266545
2355.46875,0.12511729,0.40759513
2359.375,0.16153942,0.49225822
2363.28125,0.15854308,0.56939989
2367.1875,0.17411348,0.63695711
2371.09375,0.19952337,0.69769436
2375.0,0.18633671,0.75734681
2378.90625,0.20992483,0.82193381
2382.8125,0.21589543,0.89281267
2386.71875,0.23547098,0.96359521
2390.625,0.24678919,1.02412558
2394.53125,0.24943265,1.06890762
2398.4375,0.25520137,1.10114419
2402.34375,0.25340968,1.12743688
2406.25,0.26979038,1.14920259
2410.15625,0.26264518,1.16103065
2414.0625,0.26857692,1.15761995
2417.96875,0.26939100,1.14158714
2421.875,0.24961287,1.12349176
2425.78125,0.24971130,1.11190796
2429.6875,0.26189822,1.10307181
2433.59375,0.25374001,1.08398592
2437.5,0.26246285,1.04776275
2441.40625,0.21068040,1.00225103
2445.3125,0.23366632,0.96007633
2449.21875,0.23464215,0.92366040
2453.125,0.21237174,0.88399243
2457.03125,0.20966718,0.83009505
2460.9375,0.18911156,0.75589567
2464.84375,0.17637645,0.66232902
2468.75,0.17581140,0.55884898
2472.65625,0.13739164,0.46265066
2476.5625,0.11395258,0.38961199
2480.46875,0.13449846,0.34139878
2484.375,0.11854555,0.30446836
2488.28125,0.10706429,0.26313719
2492.1875,0.09817490,0.21049224
2496.09375,0.09176115,0.14841563
2500.0,0.06880765,0.08211859
2503.90625,0.07064047,0.01548904
2507.8125,0.06001977,-0.04896687
2511.71875,0.03445226,-0.10682087
2515.625,0.03887451,-0.15198238
2519.53125,0.03706880,-0.18143693
2523.4375,0.01814701,-0.19797896
2527.34375,0.03437047,-0.20914233
2531.25,0.01326370,-0.22522271
2535.15625,0.02191030,-0.25602522
2539.0625,0.02565166,-0.30343422
2542.96875,-0.01291012,-0.35427177
2546.875,-0.01422655,-0.38630003
2550.78125,0.00588805,-0.38707882
2554.6875,-0.00576518,-0.36559561
2558.59375,0.00060177,-0.34480804
2562.5,0.01332247,-0.34417120
2566.40625,-0.01461426,-0.36683342
2570.3125,0.00017776,-0.40011179
2574.21875,-0.01427924,-0.42633343
2578.125,-0.01982872,-0.43362230
2582.03125,-0.00726784,-0.42113903
2585.9375,-0.01049069,-0.39887169
2589.84375,-0.00124993,-0.38247567
2593.75,-0.01085110,-0.38513267
2597.65625,-0.00453508,-0.40969896
2601.5625,-0.00903945,-0.44492444
2605.46875,-0.03592620,-0.47107747
2609.375,-0.02011904,-0.47507757
2613.28125,-0.01983988,-0.46197191
2617.1875,-0.00549677,-0.44950497
2621.09375,-0.02883690,-0.45195562
2625.0,-0.01417276,-0.46953550
2628.90625,-0.02146942,-0.48909444
2632.8125,-0.03836840,-0.49366295
2636.71875,-0.01854490,-0.47630978
2640.625,-0.00919139,-0.44657314
2644.53125,-0.02127408,-0.42146227
2648.4375,-0.00588067,-0.41163006
2652.34375,-0.01241893,-0.41654301
2656.25,-0.01337035,-0.42868939
2660.15625,-0.02327765,-0.44073987
2664.0625,-0.01918407,-0.45076817
2667.96875,-0.01171784,-0.46068811
2671.875,-0.01708713,-0.46865588
2675.78125,-0.03213754,-0.46613836
2679.6875,-0.01956424,-0.44712681
2683.59375,-0.01277866,-0.41946825
2687.5,-0.00415544,-0.40237910
2691.40625,-0.00760149,-0.41069329
2695.3125,-0.02944579,-0.44211927
2699.21875,-0.00943784,-0.47858769
2703.125,-0.03704926,-0.49793562
2707.03125,-0.02564713,-0.48777312
2710.9375,-0.02767157,-0.45480141
2714.84375,0.00021878,-0.42107829
2718.75,-0.00984112,-0.40624121
2722.65625,-0.01453615,-0.41172692
2726.5625,-0.02556423,-0.42330337
2730.46875,-0.00335524,-0.42673185
2734.375,-0.02117637,-0.41914999
2738.28125,-0.01261811,-0.40943855
2742.1875,-0.00508851,-0.41104385
2746.09375,-0.02192486,-0.43113098
2750.0,-0.01188819,-0.46311352
2753.90625,-0.04207304,-0.49017501
2757.8125,-0.01142653,-0.49686322
2761.71875,-0.03862074,-0.47851458
2765.625,-0.01327739,-0.44383010
2769.53125,-0.01453668,-0.41148138
2773.4375,-0.01196396,-0.39998969
2777.34375,0.01054022,-0.41307345
2781.25,-0.04620755,-0.43364853
2785.15625,-0.00975898,-0.43824065
2789.0625,-0.01835763,-0.41937217
2792.96875,-0.00230689,-0.39019495
2796.875,-0.00458558,-0.36801150
2800.78125,-0.00317007,-0.35728925
2804.6875,-0.00553449,-0.34793675
2808.59375,-0.00203379,-0.32613805
2812.5,0.01778959,-0.28524092
2816.40625,0.00351396,-0.22897263
2820.3125,0.04329631,-0.16790412
2824.21875,0.03286736,-0.11171149
2828.125,0.05468165,-0.06150784
2832.03125,0.04399433,-0.01038855
2835.9375,0.07180118,0.04640907
2839.84375,0.07020342,0.10270162
2843.75,0.08706374,0.14436840
2847.65625,0.09511099,0.16163616
2851.5625,0.07415249,0.15721640
2855.46875,0.07971542,0.14031599
2859.375,0.07691644,0.11440974
2863.28125,0.08506469,0.07545061
2867.1875,0.04416387,0.02050131
2871.09375,0.05792553,-0.04722711
2875.0,0.04113893,-0.11971151
2878.90625,0.01755319,-0.18583712
2882.8125,0.01898842,-0.23550117
2886.71875,0.00666969,-0.26693964
2890.625,0.02062308,-0.28834635
2894.53125,-0.01018044,-0.31063837
2898.4375,0.00817090,-0.34019691
2902.34375,-0.01370257,-0.37727401
2906.25,-0.00327151,-0.41701958
2910.15625,-0.03433524,-0.45173645
2914.0625,-0.02477275,-0.47571394
2917.96875,-0.01498633,-0.48799953
2921.875,-0.02878284,-0.48889494
2925.78125,-0.03707451,-0.47793508
2929.6875,-0.01857691,-0.45909196
2933.59375,-0.00971482,-0.44243771
2937.5,-0.01921899,-0.43517992
2941.40625,-0.02229909,-0.43480331
2945.3125,-0.01597569,-0.43591276
2949.21875,-0.02874140,-0.44339758
2953.125,-0.01886469,-0.47611943
2957.03125,-0.02841721,-0.55302215
2960.9375,-0.07416806,-0.66961825
2964.84375,-0.06424197,-0.78177452
2968.75,-0.07467733,-0.80444026
2972.65625,-0.05451010,-0.62556458
2976.5625,0.02608861,-0.13976678
2980.46875,0.17341195,0.70187587
2984.375,0.37573233,1.84884799
2988.28125,0.60114539,3.14032102
2992.1875,0.79741400,4.33566666
2996.09375,0.97423381,5.17850876
3000.0,0.99433124,5.47333670
3003.90625,0.96418053,5.14648628
3007.8125,0.80012113,4.26962328
3011.71875,0.58136582,3.03645515
3015.625,0.32381248,1.69496047
3019.53125,0.14146568,0.46188906
3023.4375,-0.02575758,-0.53184116
3027.34375,-0.15366510,-1.24031627
3031.25,-0.24199942,-1.67154527
3035.15625,-0.25079152,-1.86059952
3039.0625,-0.26367390,-1.85438013
3042.96875,-0.24865110,-1.70490336
3046.875,-0.20149931,-1.47019911
3050.78125,-0.12306410,-1.21131444
3054.6875,-0.12945274,-0.97690207
3058.59375,-0.08323211,-0.79100484
3062.5,-0.05263470,-0.65754914
3066.40625,-0.02730339,-0.56948805
3070.3125,-0.04053140,-0.51263469
3074.21875,-0.03457437,-0.47201502
3078.125,-0.00902356,-0.44114572
3082.03125,-0.01463464,-0.42180499
3085.9375,-0.00194988,-0.41399041
3089.84375,-0.02967749,-0.41125876
3093.75,-0.01609774,-0.40830004
3097.65625,-0.00258136,-0.40842751
3101.5625,-0.01091889,-0.41818810
3105.46875,-0.02433627,-0.43543497
3109.375,-0.00760647,-0.44577858
3113.28125,-0.02965347,-0.43177012
3117.1875,-0.01375199,-0.38869101
3121.09375,0.00748896,-0.33346796
3125.0,0.01212675,-0.29337969
3128.90625,0.00993112,-0.28144178
3132.8125,0.01750995,-0.28323078
3136.71875,-0.00415647,-0.26935458
3140.625,0.01128159,-0.22327809
3144.53125,0.03737924,-0.15830714
3148.4375,0.05870141,-0.10418533
3152.34375,0.04369769,-0.07564491
3156.25,0.03493324,-0.05870067
3160.15625,0.04270862,-0.02944112
3164.0625,0.07750989,0.02102833
3167.96875,0.08562670,0.08575256
3171.875,0.06818976,0.15782519
3175.78125,0.09491374,0.23527454
3179.6875,0.12089205,0.31268811
3183.59375,0.13260461,0.37953356
3187.5,0.12129333,0.42884001
3191.40625,0.13739108,0.46314466
3195.3125,0.15717338,0.49459389
3199.21875,0.15055944,0.54253399
3203.125,0.15611617,0.62307781
3207.03125,0.17909932,0.73147702
3210.9375,0.21300834,0.83738005
3214.84375,0.22226655,0.90625221
3218.75,0.22496642,0.92936414
3222.65625,0.21443735,0.93233579
3226.5625,0.21320565,0.95285398
3230.46875,0.23142250,1.00746167
3234.375,0.25030032,1.07796311
3238.28125,0.26694754,1.12959230
3242.1875,0.24748404,1.14167631
3246.09375,0.26102871,1.12133992
3250.0,0.23936333,1.09180534
3253.90625,0.23484048,1.07072783
3257.8125,0.25791174,1.05886281
3261.71875,0.24024573,1.04678059
3265.625,0.23724441,1.02750051
3269.53125,0.21641102,0.99906129
3273.4375,0.24610972,0.96051854
3277.34375,0.20658910,0.91352814
3281.25,0.21917152,0.86559469
3285.15625,0.19089888,0.82456088
3289.0625,0.19354591,0.78937197
3292.96875,0.20296381,0.75067973
3296.875,0.17820154,0.70147085
3300.78125,0.16486852,0.64273155
3304.6875,0.16217525,0.57720584
3308.59375,0.14585331,0.50377136
3312.5,0.14426531,0.42197540
3316.40625,0.09846836,0.33734277
3320.3125,0.12091736,0.25826776
3324.21875,0.09451533,0.19081390
3328.125,0.07079514,0.13690865
3332.03125,0.08049335,0.09184840
3335.9375,0.07036810,0.04353129
3339.84375,0.05505656,-0.01941190
3343.75,0.05727819,-0.09553365
3347.65625,0.02375997,-0.16743714
3351.5625,0.01270691,-0.21418014
3355.46875,0.01917074,-0.23059928
3359.375,0.03370829,-0.23295017
3363.28125,0.02191028,-0.24274698
3367.1875,0.01105750,-0.26759130
3371.09375,-0.00057714,-0.30014732
3375.0,0.00334802,-0.33117986
3378.90625,0.01432487,-0.35695347
3382.8125,-0.00899607,-0.37499991
3386.71875,-0.01167875,-0.38116682
3390.625,-0.00140025,-0.37515685
3394.53125,-0.00050150,-0.36528277
3398.4375,-0.00800127,-0.36524740
3402.34375,0.00636747,-0.38578001
3406.25,-0.00937784,-0.42492428
3410.15625,-0.02421938,-0.46453243
3414.0625,-0.03961989,-0.48237753
3417.96875,0.00035104,-0.47096872
3421.875,-0.01609123,-0.44099200
3425.78125,-0.01049285,-0.40801704
3429.6875,-0.00918552,-0.38222733
3433.59375,0.00139481,-0.36917853
3437.5,-0.00235852,-0.37235460
3441.40625,-0.00297809,-0.39159754
3445.3125,-0.01144831,-0.42056012
3449.21875,-0.01752442,-0.44725353
3453.125,-0.01155038,-0.45862895
3457.03125,-0.02451048,-0.44817981
3460.9375,-0.01025756,-0.42316183
3464.84375,-0.00177092,-0.40368417
3468.75,-0.00587514,-0.40903687
3472.65625,-0.01262705,-0.44100437
3476.5625,-0.02484519,-0.48079747
3480.46875,-0.02486397,-0.50338507
3484.375,-0.02290457,-0.49607456
3488.28125,-0.01899833,-0.46584284
3492.1875,-0.00876363,-0.43170363
3496.09375,-0.00812797,-0.41088164
3500.0,-0.00704287,-0.40970111
3503.90625,-0.00173658,-0.42278022
3507.8125,-0.02543661,-0.43844163
3511.71875,-0.01621496,-0.44761199
3515.625,-0.00726504,-0.44967264
3519.53125,-0.00400147,-0.44814777
3523.4375,-0.02149709,-0.44268346
3527.34375,-0.02169394,-0.43115306
3531.25,0.00043645,-0.41873854
3535.15625,-0.00496609,-0.41713548
3539.0625,-0.00769481,-0.43185392
3542.96875,-0.01635917,-0.45401508
3546.875,-0.02428573,-0.46715355
3550.78125,-0.01312018,-0.46144673
3554.6875,-0.00896761,-0.44071206
3558.59375,-0.00662162,-0.41684151
3562.5,-0.00217605,-0.39994493
3566.40625,-0.01104957,-0.39442196
3570.3125,0.00265740,-0.40147984
3574.21875,-0.01620141,-0.42168108
3578.125,-0.00804541,-0.45359638
3582.03125,-0.01118434,-0.48986372
3585.9375,-0.03323190,-0.51593852
3589.84375,-0.02733183,-0.51711720
3593.75,-0.01789324,-0.49019414
3597.65625,-0.00961319,-0.44798052
3601.5625,-0.00718273,-0.41188183
3605.46875,0.00454189,-0.39846721
3609.375,-0.01033689,-0.40926573
3613.28125,-0.01326171,-0.43177322
3617.1875,-0.00438920,-0.45090076
3621.09375,-0.02116631,-0.45916075
3625.0,-0.00679843,-0.45666206
3628.90625,-0.01370036,-0.44381347
3632.8125,0.00275801,-0.41538966
3636.71875,-0.00162182,-0.36294594
3640.625,0.00745663,-0.28548753
3644.53125,0.04204767,-0.19788039
3648.4375,0.04034541,-0.12502860
3652.34375,0.06562961,-0.08422369
3656.25,0.04746539,-0.07198168
3660.15625,0.05262683,-0.06806865
3664.0625,0.05467949,-0.05264370
3667.96875,0.07226221,-0.02027339
3671.875,0.05906292,0.01943575
3675.78125,0.08667494,0.05086500
3679.6875,0.08240033,0.06353948
3683.59375,0.07426201,0.05868044
3687.5,0.06744684,0.04485260
3691.40625,0.07456773,0.02688924
3695.3125,0.07481322,0.00258650
3699.21875,0.07190416,-0.02858688
3703.125,0.04437928,-0.05885713
3707.03125,0.05402956,-0.07968257
3710.9375,0.04899149,-0.09467399
3714.84375,0.06265074,-0.11989464
3718.75,0.03217467,-0.16951191
3722.65625,0.03130978,-0.24238986
3726.5625,0.00532749,-0.32196316
3730.46875,0.00845804,-0.38678136
3734.375,-0.00454917,-0.42204782
3738.28125,-0.00919587,-0.42607376
3742.1875,0.00411283,-0.41038638
3746.09375,-0.00637509,-0.39401194
3750.0,0.01242071,-0.39396414
3753.90625,-0.00617395,-0.41584671
3757.8125,-0.00131034,-0.44986194
3761.71875,-0.02121741,-0.47699261
3765.625,-0.01883078,-0.48325437
3769.53125,0.00093025,-0.47011691
3773.4375,-0.01536527,-0.45130971
3777.34375,0.00734466,-0.44160017
3781.25,-0.01955820,-0.45122659
3785.15625,-0.02512296,-0.48935857
3789.0625,-0.00114706,-0.56465042
3792.96875,-0.05997660,-0.67346084
3796.875,-0.06430498,-0.78535336
3800.78125,-0.06373221,-0.83780873
3804.6875,-0.05047684,-0.73943293
3808.59375,-0.01414130,-0.38628986
3812.5,0.14233272,0.30045766
3816.40625,0.29019293,1.32700670
3820.3125,0.49502215,2.59158850
3824.21875,0.75652075,3.88071561
3828.125,0.92353022,4.91467714
3832.03125,1.02342808,5.43787622
3835.9375,1.00976086,5.31411934
3839.84375,0.85815156,4.57763577
3843.75,0.65317494,3.41247368
3847.65625,0.42500812,2.07298636
3851.5625,0.21462236,0.79308218
3855.46875,0.00742595,-0.27132639
3859.375,-0.09113710,-1.05336642
3863.28125,-0.18743972,-1.55067515
3867.1875,-0.24703991,-1.79129732
3871.09375,-0.24116212,-1.81687129
3875.0,-0.21762577,-1.68400800
3878.90625,-0.17604195,-1.46271205
3882.8125,-0.13924496,-1.22156417
3886.71875,-0.09514577,-1.00899410
3890.625,-0.07490716,-0.84321237
3894.53125,-0.03719920,-0.71660811
3898.4375,-0.05880231,-0.61284274
3902.34375,-0.00281623,-0.52562934
3906.25,-0.00824791,-0.46276131
3910.15625,0.01533104,-0.43189698
3914.0625,-0.00853164,-0.42640921
3917.96875,-0.00568211,-0.42867237
3921.875,0.00168455,-0.42457518
3925.78125,0.01201905,-0.41072297
3929.6875,0.00742444,-0.38908735
3933.59375,0.01717990,-0.36031070
3937.5,0.00703376,-0.32553405
3941.40625,0.02074915,-0.29338318
3945.3125,0.04392124,-0.27905518
3949.21875,0.02769511,-0.28955179
3953.125,0.02305083,-0.31080690
3957.03125,0.00136232,-0.31753421
3960.9375,0.03001027,-0.29883233
3964.84375,0.03954198,-0.26890746
3968.75,0.02904156,-0.24966209
3972.65625,0.04877958,-0.24643631
3976.5625,0.01580662,-0.24370305
3980.46875,0.04015666,-0.22268626
3984.375,0.04404127,-0.17926103
3988.28125,0.06911807,-0.12282815
3992.1875,0.06117732,-0.06246838
3996.09375,0.06814971,-0.00039832
4000.0,0.10668124,0.06415245
4003.90625,0.08164421,0.13138559
4007.8125,0.11556716,0.19912653
4011.71875,0.13365473,0.26127586
4015.625,0.12866125,0.31229034
4019.53125,0.13278680,0.35512933
4023.4375,0.15338093,0.40191510
4027.34375,0.16085497,0.46677312
4031.25,0.17043540,0.55751008
4035.15625,0.19472122,0.66947061
4039.0625,0.20337488,0.78475082
4042.96875,0.25280097,0.88129330
4046.875,0.24195679,0.94879556
4050.78125,0.23903257,0.99569941
4054.6875,0.25318170,1.03662419
4058.59375,0.27529618,1.07551789
4062.5,0.27691406,1.10673654
4066.40625,0.27004859,1.12900877
4070.3125,0.26538411,1.14960980
4074.21875,0.30005845,1.17456555
4078.125,0.28140628,1.20098221
4082.03125,0.28572154,1.21970356
4085.9375,0.29905236,1.22234666
4089.84375,0.28346151,1.20687687
4093.75,0.29385573,1.17868567
4097.65625,0.27059960,1.14589834
4101.5625,0.27081451,1.11221778
4105.46875,0.25952974,1.07292879
4109.375,0.27923420,1.01854873
4113.28125,0.22784005,0.94440234
4117.1875,0.23331964,0.85668856
4121.09375,0.21463473,0.76993829
4125.0,0.20545390,0.69983476
4128.90625,0.18735935,0.65395206
4132.8125,0.18125041,0.62312829
4136.71875,0.19369882,0.58422238
4140.625,0.18456909,0.51924354
4144.53125,0.14742602,0.43309575
4148.4375,0.12885348,0.34708798
4152.34375,0.12633577,0.27493799
4156.25,0.14069992,0.21231015
4160.15625,0.10955829,0.15057124
4164.0625,0.07471877,0.09058971
4167.96875,0.10094499,0.03818931
4171.875,0.08032394,-0.00553258
4175.78125,0.08083314,-0.04385546
4179.6875,0.07062472,-0.08007444
4183.59375,0.04307454,-0.11827912
4187.5,0.06445384,-0.16558172
4191.40625,0.05436311,-0.22697315
4195.3125,0.03297351,-0.29526317
4199.21875,0.00906428,-0.35123312
4203.125,0.01816864,-0.37903661
4207.03125,0.01480140,-0.38061470
4210.9375,0.03347776,-0.37291357
4214.84375,0.01532175,-0.37164238
4218.75,0.01464154,-0.37909216
4222.65625,0.01827668,-0.38718528
4226.5625,0.01077997,-0.38995573
4230.46875,0.01927827,-0.39130294
4234.375,0.01712444,-0.39975008
4238.28125,0.02360797,-0.41546372
4242.1875,-0.00335141,-0.42541939
4246.09375,0.01500046,-0.41568065
4250.0,0.00694027,-0.38849205
4253.90625,0.03511550,-0.36415118
4257.8125,0.02705534,-0.36490068
4261.71875,0.00436913,-0.39730132
4265.625,0.02048949,-0.44764042
4269.53125,-0.01217410,-0.49067423
4273.4375,-0.00383955,-0.50578439
4277.34375,0.00559575,-0.49126691
4281.25,0.01198404,-0.46390241
4285.15625,-0.00444784,-0.44447297
4289.0625,0.00924823,-0.44536287
4292.96875,0.02386656,-0.46655917
4296.875,-0.01036161,-0.49526587
4300.78125,-0.00723552,-0.51263577
4304.6875,-0.01391320,-0.50931865
4308.59375,0.02287294,-0.49384958
4312.5,-0.00368890,-0.48180211
4316.40625,0.00462900,-0.47918725
4320.3125,-0.00130131,-0.47926301
4324.21875,0.00833324,-0.47207761
4328.125,0.00550855,-0.45415697
4332.03125,0.01181523,-0.43166399
4335.9375,0.01174355,-0.41684750
4339.84375,0.02897072,-0.41927233
4343.75,-0.00142538,-0.43733194
4347.65625,0.01208800,-0.45793250
4351.5625,0.00911420,-0.46496123
4355.46875,-0.00079287,-0.45001939
4359.375,0.02029492,-0.41910687
4363.28125,0.03217600,-0.38976881
4367.1875,-0.00288950,-0.37997675
4371.09375,0.03976336,-0.39846995
4375.0,0.00874539,-0.44009051
4378.90625,0.00959905,-0.48532364
4382.8125,-0.02056400,-0.50997370
4386.71875,0.01154327,-0.50273407
4390.625,0.00937311,-0.47319737
4394.53125,0.00786780,-0.44253120
4398.4375,0.01906292,-0.42865524
4402.34375,0.00906576,-0.43720731
4406.25,0.01567939,-0.45949882
4410.15625,0.00350489,-0.47742522
4414.0625,-0.00213707,-0.47569495
4417.96875,0.01294631,-0.45457020
4421.875,0.01873796,-0.43048620
4425.78125,0.02021086,-0.42150426
4429.6875,0.01336710,-0.43191439
4433.59375,0.00347149,-0.45154572
4437.5,0.01325025,-0.46763104
4441.40625,0.01014893,-0.47434962
4445.3125,-0.00112030,-0.47267997
4449.21875,0.01895082,-0.46530917
4453.125,0.01424669,-0.45215833
4457.03125,0.00512304,-0.43063846
4460.9375,0.01737689,-0.40217248
4464.84375,0.03157735,-0.37513083
4468.75,0.04680217,-0.35436222
4472.65625,0.01228713,-0.33040044
4476.5625,0.03625449,-0.28872907
4480.46875,0.05477574,-0.22970127
4484.375,0.07054089,-0.17046326
4488.28125,0.07040412,-0.12614624
4492.1875,0.06303737,-0.09616401
4496.09375,0.07881438,-0.06986180
4500.0,0.09318390,-0.03816665
4503.90625,0.09193322,0.00351671
4507.8125,0.09489139,0.05604894
4511.71875,0.09640561,0.11197293
4515.625,0.14452003,0.15391134
4519.53125,0.11364532,0.16591822
4523.4375,0.10756609,0.14569169
4527.34375,0.11376621,0.10207001
4531.25,0.09930368,0.04520461
4535.15625,0.08869181,-0.01694783
4539.0625,0.08417027,-0.07700986
4542.96875,0.06297207,-0.12842682
4546.875,0.05807327,-0.16931885
4550.78125,0.06524173,-0.20512789
4554.6875,0.05381901,-0.24418819
4558.59375,0.02649936,-0.28999704
4562.5,0.05178842,-0.33829886
4566.40625,0.02432042,-0.37919095
4570.3125,0.00625659,-0.40333092
4574.21875,0.03108957,-0.41077095
4578.125,0.02825139,-0.41119602
4582.03125,0.02277373,-0.41240263
4585.9375,0.00619933,-0.41402048
4589.84375,0.03164384,-0.41405275
4593.75,0.02309081,-0.41343653
4597.65625,0.02084891,-0.41192657
4601.5625,0.01922827,-0.40712273
4605.46875,0.02074464,-0.40018144
4609.375,0.04253367,-0.39680037
4613.28125,0.00844463,-0.40240023
4617.1875,0.01443754,-0.42453244
4621.09375,0.01663023,-0.48000470
4625.0,-0.00110681,-0.58576208
4628.90625,-0.03804215,-0.73122418
4632.8125,-0.04572396,-0.85630661
4636.71875,-0.04689920,-0.85379958
4640.625,-0.01985883,-0.59767580
4644.53125,0.09133640,0.00886706
4648.4375,0.26451057,0.98184216
4652.34375,0.46755746,2.22520137
4656.25,0.70851237,3.53668284
4660.15625,0.90441000,4.65426779
4664.0625,1.01816642,5.33141756
4667.96875,1.05042660,5.41347313
4671.875,0.92535365,4.88400698
4675.78125,0.77412122,3.86336589
4679.6875,0.52307004,2.56367922
4683.59375,0.31731373,1.22194624
4687.5,0.08423372,0.03639291
4691.40625,-0.05945326,-0.87444198
4695.3125,-0.15207906,-1.47788751
4699.21875,-0.20489320,-1.80090761
4703.125,-0.23929623,-1.89454699
4707.03125,-0.22584751,-1.81452715
4710.9375,-0.17568001,-1.61895716
4714.84375,-0.15173462,-1.36748493
4718.75,-0.08979909,-1.11421204
4722.65625,-0.04297288,-0.89618105
4726.5625,-0.05041359,-0.72566909
4730.46875,-0.01580377,-0.59814185
4734.375,0.02389392,-0.50925708
4738.28125,0.02453355,-0.45825937
4742.1875,0.00009049,-0.43850517
4746.09375,0.02353743,-0.43605936
4750.0,0.04063712,-0.43728977
4753.90625,-0.00412058,-0.43367803
4757.8125,0.02718004,-0.42457956
4761.71875,0.03689212,-0.41675046
4765.625,0.01918903,-0.41518942
4769.53125,0.01884888,-0.41560125
4773.4375,0.03728523,-0.40900865
4777.34375,0.01096134,-0.39085761
4781.25,0.03917896,-0.36530334
4785.15625,0.04983907,-0.34164917
4789.0625,0.03912032,-0.32430911
4792.96875,0.02252567,-0.30817071
4796.875,0.06431692,-0.28662756
4800.78125,0.04920608,-0.25950083
4804.6875,0.06119593,-0.23069680
4808.59375,0.04922367,-0.20399970
4812.5,0.06474171,-0.18337333
4816.40625,0.08567852,-0.17079712
4820.3125,0.06132517,-0.15923554
4824.21875,0.07143641,-0.13249390
4828.125,0.07077856,-0.07826246
4832.03125,0.11028996,-0.00019756
4835.9375,0.11998858,0.08651248
4839.84375,0.11449853,0.16934867
4843.75,0.13963611,0.24426855
4847.65625,0.14703876,0.31116611
4851.5625,0.18174279,0.37184861
4855.46875,0.15568788,0.43296716
4859.375,0.18514207,0.50290138
4863.28125,0.18886286,0.58143133
4867.1875,0.22836071,0.65712357
4871.09375,0.22352622,0.71930003
4875.0,0.21516778,0.76945895
4878.90625,0.24595049,0.81740379
4882.8125,0.24923746,0.86946130
4886.71875,0.24939249,0.92347938
4890.625,0.27464384,0.97342271
4894.53125,0.27932233,1.01815867
4898.4375,0.27028760,1.06433666
4902.34375,0.28460190,1.11601400
4906.25,0.30835778,1.16357791
4910.15625,0.30956981,1.19071126
4914.0625,0.29757664,1.19125879
4917.96875,0.29517120,1.17256021
4921.875,0.30160001,1.14506590
4925.78125,0.29431099,1.11651182
4929.6875,0.27721313,1.09366083
4933.59375,0.29422155,1.08034873
4937.5,0.27044776,1.07144058
4941.40625,0.29023886,1.05301392
4945.3125,0.27115381,1.01177084
4949.21875,0.26334432,0.94477504
4953.125,0.24059169,0.86007947
4957.03125,0.23559846,0.77009940
4960.9375,0.21512704,0.68629742
4964.84375,0.20570159,0.61667556
4968.75,0.18608099,0.56246996
4972.65625,0.20366511,0.51674861
4976.5625,0.16093768,0.46915635
4980.46875,0.18308315,0.41275227
4984.375,0.16002814,0.34707233
4988.28125,0.12883775,0.27615812
4992.1875,0.14478102,0.20364685
4996.09375,0.12363545,0.13088095
5000.0,0.09917924,0.05963773
5003.90625,0.10255422,-0.00682535
5007.8125,0.08689044,-0.06521629
5011.71875,0.07370459,-0.11262515
5015.625,0.07473920,-0.14787869
5019.53125,0.07196459,-0.17372213
5023.4375,0.05858517,-0.19596420
5027.34375,0.05649018,-0.22112939
5031.25,0.06144213,-0.25483611
5035.15625,0.04602977,-0.29830542
5039.0625,0.03895809,-0.34434146
5042.96875,0.02446884,-0.37960592
5046.875,0.03615757,-0.39379254
5050.78125,0.02863327,-0.38758686
5054.6875,0.02929417,-0.37287906
5058.59375,0.03956791,-0.36524904
5062.5,0.03867545,-0.37303695
5066.40625,0.02726269,-0.39161205
5070.3125,0.01866553,-0.40993673
5074.21875,0.02625750,-0.42292419
5078.125,0.02755852,-0.43457052
5082.03125,0.02594080,-0.44921941
5085.9375,0.00526835,-0.46397245
5089.84375,0.02564970,-0.47095603
5093.75,0.00935794,-0.46428731
5097.65625,0.02485548,-0.44488281
5101.5625,0.02573945,-0.42143232
5105.46875,0.02245766,-0.40648952
5109.375,0.03480424,-0.40850979
5113.28125,0.02033177,-0.42564222
5117.1875,0.02393969,-0.44728929
5121.09375,0.00934769,-0.46272245
5125.0,0.01862992,-0.46902263
5128.90625,0.01711578,-0.47130033
5132.8125,0.02046918,-0.47568017
5136.71875,0.01761092,-0.48242417
5140.625,-0.00868864,-0.48689750
5144.53125,0.02920414,-0.48604286
5148.4375,0.02782944,-0.47926593
5152.34375,-0.00549435,-0.46455407
5156.25,0.02254480,-0.44225979
5160.15625,0.03155109,-0.42165652
5164.0625,0.02817658,-0.41435498
5167.96875,0.02789742,-0.42052040
5171.875,0.01715478,-0.42722696
5175.78125,0.01319115,-0.42181435
5179.6875,0.04215758,-0.40486330
5183.59375,0.02445439,-0.38868877
5187.5,0.03894226,-0.38436472
5191.40625,0.01847630,-0.39233968
5195.3125,0.03039418,-0.40469036
5199.21875,0.02912431,-0.41304222
5203.125,0.02881748,-0.41369864
5207.03125,0.00468766,-0.40965542
5210.9375,0.04762171,-0.41003522
5214.84375,0.02289820,-0.42263636
5218.75,0.01526031,-0.44410980
5222.65625,0.02268703,-0.46107465
5226.5625,-0.00202438,-0.46304360
5230.46875,0.03573107,-0.45322686
5234.375,0.01449848,-0.44581258
5238.28125,0.02246661,-0.45204136
5242.1875,0.02128654,-0.46858156
5246.09375,-0.00195583,-0.48034558
5250.0,0.01515305,-0.47567061
5253.90625,0.03409443,-0.45656845
5257.8125,0.00973047,-0.43300086
5261.71875,0.02217010,-0.41323364
5265.625,0.03140826,-0.40218928
5269.53125,0.03848243,-0.40077400
5273.4375,0.00987232,-0.40291452
5277.34375,0.03281673,-0.39958951
5281.25,0.02930218,-0.38853112
5285.15625,0.02881692,-0.37695345
5289.0625,0.03556784,-0.37397933
5292.96875,0.03517378,-0.38074383
5296.875,0.01752085,-0.38753316
5300.78125,0.03895183,-0.38072327
5304.6875,0.03082463,-0.35163209
5308.59375,0.04800437,-0.29955611
5312.5,0.04612754,-0.23161437
5316.40625,0.07691336,-0.16191491
5320.3125,0.07913283,-0.10560785
5324.21875,0.08319892,-0.06923353
5328.125,0.07862639,-0.04790969
5332.03125,0.10074343,-0.03177953
5335.9375,0.09060396,-0.01192873
5339.84375,0.10003853,0.01824325
5343.75,0.09521671,0.06040538
5347.65625,0.12821625,0.10749883
5351.5625,0.11200243,0.14571370
5355.46875,0.12663446,0.16215087
5359.375,0.12472623,0.15147433
5363.28125,0.11694626,0.11719535
5367.1875,0.09202310,0.06620389
5371.09375,0.10520312,0.00165378
5375.0,0.09246247,-0.07510042
5378.90625,0.05395732,-0.15568675
5382.8125,0.06437068,-0.22443184
5386.71875,0.04208695,-0.26905370
5390.625,0.04278164,-0.28934035
5394.53125,0.05239034,-0.29608753
5398.4375,0.03658424,-0.30261868
5402.34375,0.04750730,-0.31531769
5406.25,0.03274844,-0.33032158
5410.15625,0.03172058,-0.33952159
5414.0625,0.04083869,-0.34063289
5417.96875,0.03444584,-0.34118724
5421.875,0.02831006,-0.35298619
5425.78125,0.03437578,-0.38257313
5429.6875,0.03219630,-0.42372435
5433.59375,0.00096364,-0.45857418
5437.5,0.00471115,-0.47221813
5441.40625,0.01764884,-0.46887380
5445.3125,0.02843563,-0.46893343
5449.21875,0.00364098,-0.49003464
5453.125,-0.01376747,-0.53763998
5457.03125,-0.00642095,-0.61229467
5460.9375,-0.03014521,-0.71117693
5464.84375,-0.02347385,-0.80952507
5468.75,-0.07550202,-0.84001863
5472.65625,-0.01283766,-0.69604713
5476.5625,0.06093337,-0.26236820
5480.46875,0.15960243,0.53635246
5484.375,0.37553996,1.67917299
5488.28125,0.61354512,3.01301360
5492.1875,0.83946657,4.27491713
5496.09375,0.99298781,5.17391348
5500.0,1.05617416,5.49215364
5503.90625,0.99012101,5.15819263
5507.8125,0.81638974,4.26212978
5511.71875,0.62365896,3.01135921
5515.625,0.37202615,1.65521049
5519.53125,0.14789130,0.41205043
5523.4375,-0.00142255,-0.57963377
5527.34375,-0.12412094,-1.27287591
5531.25,-0.19643040,-1.68786538
5535.15625,-0.22883768,-1.87383807
5539.0625,-0.23795615,-1.88176596
5542.96875,-0.20718746,-1.75590575
5546.875,-0.17491385,-1.53822649
5550.78125,-0.14171380,-1.27577543
5554.6875,-0.07297666,-1.02058017
5558.59375,-0.04262501,-0.81539768
5562.5,-0.02459833,-0.67491370
5566.40625,-0.01902196,-0.58440608
5570.3125,-0.00514231,-0.52033359
5574.21875,0.02871338,-0.47018602
5578.125,0.00269899,-0.43360904
5582.03125,0.02490681,-0.41317317
5585.9375,0.02004475,-0.40881652
5589.84375,0.02274637,-0.41654605
5593.75,0.01203124,-0.42881075
5597.65625,0.01595042,-0.43730670
5601.5625,0.01908938,-0.43611884
5605.46875,0.00825286,-0.42253217
5609.375,0.03934649,-0.39630961
5613.28125,0.01515323,-0.35964084
5617.1875,0.02936067,-0.31950030
5621.09375,0.05105205,-0.28815642
5625.0,0.05075606,-0.27448055
5628.90625,0.02944018,-0.27338099
5632.8125,0.04672259,-0.26884270
5636.71875,0.05742442,-0.24768077
5640.625,0.02677027,-0.20977379
5644.53125,0.08045495,-0.16869609
5648.4375,0.06864985,-0.14056315
5652.34375,0.06567958,-0.12647672
5656.25,0.07559571,-0.10726970
5660.15625,0.05795015,-0.05977788
5664.0625,0.10193215,0.02130098
5667.96875,0.12187662,0.11834558
5671.875,0.11062229,0.20506428
5675.78125,0.14254114,0.26341876
5679.6875,0.14233081,0.29204854
5683.59375,0.12943059,0.30644318
5687.5,0.16379385,0.33124065
5691.40625,0.14462514,0.38690442
5695.3125,0.15832439,0.47667068
5699.21875,0.20049697,0.58195299
5703.125,0.21128659,0.67484868
5707.03125,0.21494354,0.74101210
5710.9375,0.22587216,0.79009652
5714.84375,0.21932839,0.84375215
5718.75,0.25975046,0.91582143
5722.65625,0.25647211,1.00288343
5726.5625,0.26242259,1.08807838
5730.46875,0.31514058,1.15255702
5734.375,0.28126383,1.18858552
5738.28125,0.28234127,1.20298433
5742.1875,0.31018147,1.20669138
5746.09375,0.29170480,1.20496440
5750.0,0.28304154,1.19689322
5753.90625,0.30650339,1.17847216
5757.8125,0.28420472,1.14862216
5761.71875,0.27278349,1.11561215
5765.625,0.27327690,1.09198749
5769.53125,0.27161452,1.07958913
5773.4375,0.27524918,1.06368232
5777.34375,0.27122596,1.02522206
5781.25,0.23202592,0.95712602
5785.15625,0.25162402,0.86777198
5789.0625,0.21806844,0.77419329
5792.96875,0.20880006,0.69456786
5796.875,0.17112280,0.63894176
5800.78125,0.21030340,0.60049880
5804.6875,0.18549079,0.56013763
5808.59375,0.16359583,0.50222516
5812.5,0.15206046,0.42278451
5816.40625,0.15410791,0.32720277
5820.3125,0.13107063,0.22913790
5824.21875,0.08384253,0.14733064
5828.125,0.11228818,0.09267259
5832.03125,0.09853610,0.05914020
5835.9375,0.09079202,0.03207267
5839.84375,0.08087664,0.00215426
5843.75,0.08230457,-0.03116115
5847.65625,0.05537859,-0.06672633
5851.5625,0.08490859,-0.10869871
5855.46875,0.05220572,-0.16360727
5859.375,0.03587734,-0.23006263
5863.28125,0.04055018,-0.29482687
5867.1875,0.01389115,-0.34126177
5871.09375,0.02839475,-0.36197555
5875.0,0.01755183,-0.36414149
5878.90625,0.01131012,-0.36341512
5882.8125,0.03016504,-0.37188962
5886.71875,0.02125061,-0.38839123
5890.625,0.00379896,-0.39918458
5894.53125,0.00602343,-0.39260924
5898.4375,0.01591407,-0.37486401
5902.34375,0.03814491,-0.36653471
5906.25,0.00777784,-0.38137361
5910.15625,0.00632913,-0.41236666
5914.0625,0.01312814,-0.43953902
5917.96875,-0.00860316,-0.44829389
5921.875,0.00468656,-0.44117165
5925.78125,0.01407035,-0.43390760
5929.6875,0.00964496,-0.43773663
5933.59375,0.00861605,-0.44512054
5937.5,-0.01050920,-0.43704307
5941.40625,0.00428760,-0.40642163
5945.3125,0.02093161,-0.37094429
5949.21875,0.03579661,-0.35806796
5953.125,0.01519590,-0.37713829
5957.03125,-0.00339857,-0.41037601
5960.9375,-0.00246373,-0.43313414
5964.84375,0.00068104,-0.43964401
5968.75,0.02854169,-0.44497287
5972.65625,-0.01373397,-0.46308345
5976.5625,-0.00029350,-0.48845199
5980.46875,-0.01788305,-0.50124800
5984.375,-0.00289874,-0.48775753
5988.28125,-0.00163632,-0.45443597
5992.1875,0.01280541,-0.42280895
5996.09375,0.01141365,-0.41031104
6000.0,0.00418346,-0.41595635
6003.90625,-0.00190541,-0.42567816
6007.8125,-0.00368831,-0.43050474
6011.71875,0.02104416,-0.43524975
6015.625,-0.00035177,-0.44819525
6019.53125,-0.01250651,-0.46840122
6023.4375,-0.00832626,-0.48746982
6027.34375,0.00102579,-0.49818179
6031.25,-0.00909887,-0.49706075
6035.15625,-0.01872373,-0.48450074
6039.0625,0.01151408,-0.46657979
6042.96875,-0.00841993,-0.45231301
6046.875,-0.00173602,-0.44767717
6050.78125,0.00081880,-0.45494738
6054.6875,-0.00365587,-0.47402647
6058.59375,-0.00263546,-0.49891090
6062.5,-0.03194971,-0.51634771
6066.40625,-0.00040871,-0.51401579
6070.3125,-0.00388697,-0.48885006
6074.21875,-0.00620997,-0.44619641
6078.125,-0.00220731,-0.39681938
6082.03125,0.02533003,-0.35674262
6085.9375,0.01857409,-0.34213102
6089.84375,0.00733754,-0.35830495
6093.75,0.01720059,-0.39387333
6097.65625,-0.00676648,-0.42635608
6101.5625,-0.00227961,-0.43612921
6105.46875,0.00433259,-0.41928920
6109.375,0.00985472,-0.38866886
6113.28125,0.00960801,-0.36278418
6117.1875,0.02282290,-0.35359970
6121.09375,0.00035350,-0.36123228
6125.0,0.02024801,-0.37573627
6128.90625,-0.00105891,-0.38311189
6132.8125,0.01674672,-0.37304807
6136.71875,0.00277828,-0.34490538
6140.625,0.03522833,-0.30639711
6144.53125,0.02026614,-0.26434404
6148.4375,0.05029933,-0.21752474
6152.34375,0.01978073,-0.16154096
6156.25,0.07393752,-0.09971019
6160.15625,0.06104293,-0.04413004
6164.0625,0.07580294,-0.00479867
6167.96875,0.08227856,0.01882755
6171.875,0.06556736,0.03477349
6175.78125,0.08396401,0.04936848
6179.6875,0.08701196,0.06244024
6183.59375,0.09424083,0.07120022
6187.5,0.07490521,0.07546169
6191.40625,0.08216845,0.07538544
6195.3125,0.08500174,0.06627920
6199.21875,0.09015152,0.04153529
6203.125,0.07650239,0.00187284
6207.03125,0.04402323,-0.04385733
6210.9375,0.05920139,-0.09033549
6214.84375,0.05874335,-0.14248942
6218.75,0.04021105,-0.20498641
6222.65625,0.01894268,-0.27016371
6226.5625,0.00555791,-0.32438406
6230.46875,0.00566084,-0.36464044
6234.375,0.02593405,-0.40007648
6238.28125,-0.00951470,-0.43496162
6242.1875,-0.03020047,-0.45970866
6246.09375,0.00864167,-0.46435866
6250.0,-0.01170284,-0.45305714
6253.90625,-0.00578148,-0.44034567
6257.8125,-0.01056228,-0.43849453
6261.71875,0.00709165,-0.44878766
6265.625,-0.01144043,-0.45973763
6269.53125,-0.01589935,-0.45570466
6273.4375,-0.01711648,-0.43384972
6277.34375,0.01292039,-0.41234401
6281.25,0.00768038,-0.41724971
6285.15625,-0.01981813,-0.46232462
6289.0625,-0.03123610,-0.54439485
6292.96875,-0.04220212,-0.65108424
6296.875,-0.05281710,-0.75982761
6300.78125,-0.08180813,-0.82347530
6304.6875,-0.04089670,-0.75713110
6308.59375,0.00066494,-0.44306910
6312.5,0.08256067,0.22974002
6316.40625,0.28024641,1.29081786
6320.3125,0.51147217,2.62192607
6324.21875,0.77174658,3.96218967
6328.125,0.94531125,4.99786949
6332.03125,1.02172136,5.48241043
6335.9375,0.98291576,5.31736565
6339.84375,0.86392754,4.56518126
6343.75,0.65779269,3.40834022
6347.65625,0.41609445,2.08153081
6351.5625,0.20113155,0.80144161
6355.46875,0.02641423,-0.27989069
6359.375,-0.11988891,-1.08480012
6363.28125,-0.21157511,-1.59577179
6367.1875,-0.23808609,-1.83763206
6371.09375,-0.26707917,-1.86284614
6375.0,-0.23700775,-1.73872006
6378.90625,-0.18382736,-1.53394461
6382.8125,-0.15504572,-1.30328023
6386.71875,-0.13136815,-1.07908154
6390.625,-0.08230419,-0.87793416
6394.53125,-0.05813139,-0.71244895
6398.4375,-0.03473631,-0.59328759
6402.34375,-0.01209876,-0.52193904
6406.25,-0.02381916,-0.48620173
6410.15625,-0.02878171,-0.46723729
6414.0625,0.00725156,-0.45236900
6417.96875,-0.02083660,-0.43899125
6421.875,-0.00222704,-0.42809168
6425.78125,-0.00372342,-0.41871825
6429.6875,-0.01157902,-0.40852925
6433.59375,0.00038475,-0.39705792
6437.5,-0.00102161,-0.38685358
6441.40625,-0.00113585,-0.38039321
6445.3125,0.00770210,-0.37622410
6449.21875,-0.00782124,-0.36891222
6453.125,0.01471498,-0.35257775
6457.03125,-0.00388644,-0.32489291
6460.9375,0.02168577,-0.28919536
6464.84375,0.02992025,-0.25327373
6468.75,0.00834428,-0.22545487
6472.65625,0.04690047,-0.21030898
6476.5625,0.02076904,-0.20452383
6480.46875,0.03380368,-0.19583330
6484.375,0.03119111,-0.17017749
6488.28125,0.04491996,-0.12254006
6492.1875,0.05720529,-0.06016432
6496.09375,0.05751549,0.00383021
6500.0,0.08581502,0.05922216
6503.90625,0.07425654,0.10422791
6507.8125,0.09792117,0.14605711
6511.71875,0.09185952,0.19621928
6515.625,0.10473264,0.26256621
6519.53125,0.12873180,0.34375048
6523.4375,0.14283697,0.43138993
6527.34375,0.14664879,0.51653749
6531.25,0.16699328,0.59233660
6535.15625,0.18051170,0.65359437
6539.0625,0.17852536,0.69925094
6542.96875,0.19837762,0.73632658
6546.875,0.19837566,0.77929914
6550.78125,0.20313762,0.84204519
6554.6875,0.22106187,0.92550552
6558.59375,0.23413107,1.01159596
6562.5,0.25857386,1.07326186
6566.40625,0.25695774,1.09627926
6570.3125,0.25732818,1.09358299
6574.21875,0.23377793,1.09503400
6578.125,0.25124121,1.11829925
6582.03125,0.26942843,1.14988160
6585.9375,0.27026325,1.15819371
6589.84375,0.26152918,1.12569737
6593.75,0.24407025,1.06713462
6597.65625,0.23060140,1.01724935
6601.5625,0.22829148,1.00065422
6605.46875,0.24350169,1.01085007
6609.375,0.23836055,1.01623166
6613.28125,0.24627332,0.98670673
6617.1875,0.20695446,0.91662925
6621.09375,0.20842271,0.82517314
6625.0,0.18401097,0.73797899
6628.90625,0.17939313,0.66891223
6632.8125,0.17113599,0.61484951
6636.71875,0.15158050,0.56272817
6640.625,0.16288637,0.50130153
6644.53125,0.12073756,0.42929497
6648.4375,0.13153675,0.35429129
6652.34375,0.10784464,0.28453562
6656.25,0.09326091,0.22220215
6660.15625,0.10090680,0.16385132
6664.0625,0.07110079,0.10616489
6667.96875,0.07211102,0.04959197
6671.875,0.05939972,-0.00386107
6675.78125,0.05947153,-0.05359169
6679.6875,0.02879777,-0.10063244
6683.59375,0.03921976,-0.14778873
6687.5,0.03500785,-0.19820681
6691.40625,0.01540608,-0.25010410
6695.3125,0.00565638,-0.29488301
6699.21875,0.00053709,-0.32407412
6703.125,0.00811168,-0.33717531
6707.03125,-0.00462700,-0.34166950
6710.9375,0.00772440,-0.34705207
6714.84375,-0.00316808,-0.35858524
6718.75,-0.00741331,-0.37448806
6722.65625,-0.00706210,-0.38824275
6726.5625,-0.00767354,-0.39386892
6730.46875,-0.00883598,-0.38993269
6734.375,-0.00461053,-0.38008860
6738.28125,0.00105191,-0.36986446
6742.1875,-0.00859720,-0.36254540
6746.09375,-0.00843584,-0.35959020
6750.0,0.00295342,-0.36425093
6753.90625,0.00246176,-0.37991834
6757.8125,-0.01526469,-0.40397757
6761.71875,-0.02930460,-0.42873195
6765.625,-0.00273543,-0.44989663
6769.53125,-0.02670412,-0.46978641
6773.4375,-0.02638976,-0.49187592
6777.34375,-0.02718816,-0.51438373
6781.25,-0.02193260,-0.52640903
6785.15625,-0.04585322,-0.51116246
6789.0625,-0.02414269,-0.46191078
6792.96875,-0.00460419,-0.39711592
6796.875,0.01260934,-0.35155672
6800.78125,-0.01244611,-0.34847462
6804.6875,-0.00845841,-0.38289902
6808.59375,-0.00740606,-0.42910618
6812.5,-0.02501274,-0.45907590
6816.40625,-0.02948583,-0.45911080
6820.3125,-0.01357528,-0.43776125
6824.21875,-0.00449021,-0.41740504
6828.125,-0.01639595,-0.41412652
6832.03125,-0.01384422,-0.42581648
6835.9375,-0.01830633,-0.43862507
6839.84375,-0.01961782,-0.44129112
6843.75,-0.02422165,-0.43362847
6847.65625,-0.00498740,-0.42411119
6851.5625,-0.00783953,-0.41936976
6855.46875,-0.01950147,-0.41609848
6859.375,-0.01462940,-0.40516353
6863.28125,-0.01052322,-0.38334459
6867.1875,-0.00454831,-0.35930631
6871.09375,0.00542705,-0.34799019
6875.0,0.00307475,-0.35830757
6878.90625,-0.01765545,-0.38466963
6882.8125,-0.01479141,-0.41143081
6886.71875,-0.02095822,-0.42703333
6890.625,-0.00836819,-0.43262297
6894.53125,-0.00457787,-0.43565035
6898.4375,-0.03714075,-0.43837294
6902.34375,-0.01637067,-0.43693063
6906.25,-0.00057348,-0.42880049
6910.15625,-0.03491626,-0.41671011
6914.0625,0.00046783,-0.40747738
6917.96875,-0.00433864,-0.40732592
6921.875,-0.02395878,-0.41571310
6925.78125,-0.02986343,-0.42731774
6929.6875,0.00292766,-0.44068488
6933.59375,-0.02214585,-0.45764327
6937.5,-0.03257525,-0.47451121
6941.40625,-0.01628646,-0.48104668
6945.3125,-0.03318134,-0.46934274
6949.21875,-0.02783542,-0.44346213
6953.125,0.00655432,-0.42047167
6957.03125,-0.01798011,-0.41629809
6960.9375,-0.01217932,-0.42646304
6964.84375,-0.02700145,-0.42505410
6968.75,-0.01350351,-0.38750449
6972.65625,0.01450671,-0.31455281
6976.5625,0.01333307,-0.23306267
6980.46875,0.02846293,-0.17433852
6984.375,0.03586168,-0.15032658
6988.28125,0.03590207,-0.14497468
6992.1875,0.03755203,-0.12568665
6996.09375,0.02578013,-0.06855277
7000.0,0.07377774,0.02056426
7003.90625,0.06964193,0.10832528
7007.8125,0.10539442,0.15937738
7011.71875,0.07698311,0.16211875
7015.625,0.07904133,0.13252768
7019.53125,0.07415055,0.09647856
7023.4375,0.06229612,0.06947007
7027.34375,0.07206100,0.04976976
7031.25,0.06874800,0.02648250
7035.15625,0.05918863,-0.00733391
7039.0625,0.04393541,-0.04967663
7042.96875,0.02861652,-0.09675689
7046.875,0.04238008,-0.15076396
7050.78125,0.03181323,-0.21541548
7054.6875,0.00433898,-0.28509483
7058.59375,-0.01022163,-0.34482226
7062.5,-0.00866874,-0.38299707
7066.40625,-0.01359988,-0.40110764
7070.3125,0.00309648,-0.40998805
7074.21875,-0.02244072,-0.41816095
7078.125,-0.00978853,-0.42453229
7082.03125,-0.02795093,-0.42278016
7085.9375,-0.01814274,-0.41291872
7089.84375,0.01407369,-0.40524712
7093.75,-0.02592108,-0.40927497
7097.65625,-0.01320949,-0.42197680
7101.5625,-0.02401711,-0.43120292
7105.46875,-0.00490068,-0.42758915
7109.375,-0.01491994,-0.41169262
7113.28125,-0.02034637,-0.39673382
7117.1875,-0.00683678,-0.40862164
7121.09375,-0.02205343,-0.47477645
7125.0,-0.03790504,-0.60031039
7128.90625,-0.07819516,-0.74947101
7132.8125,-0.09056199,-0.84851468
7136.71875,-0.06063415,-0.80353600
7140.625,-0.05221421,-0.52005416
7144.53125,0.07726687,0.07399718
7148.4375,0.23632489,0.99745607
7152.34375,0.42545253,2.18501830
7156.25,0.64865035,3.47044277
7160.15625,0.84798521,4.60315847
7164.0625,0.99976009,5.31441641
7167.96875,1.01386619,5.41630745
7171.875,0.90001214,4.87835598
7175.78125,0.70965153,3.83311081
7179.6875,0.49642676,2.51460838
7183.59375,0.25274897,1.17386532
7187.5,0.06333423,0.00963066
7191.40625,-0.10313421,-0.86946404
7195.3125,-0.17890690,-1.44522011
7199.21875,-0.23715815,-1.75678325
7203.125,-0.26306778,-1.85821545
7207.03125,-0.26176611,-1.79713368
7210.9375,-0.21946712,-1.61984122
7214.84375,-0.17474334,-1.37982273
7218.75,-0.13246247,-1.13069797
7222.65625,-0.09837604,-0.91065329
7226.5625,-0.07881692,-0.73643339
7230.46875,-0.04033676,-0.61076427
7234.375,-0.02037397,-0.53031141
7238.28125,-0.03284495,-0.48648983
7242.1875,-0.03597234,-0.46679401
7246.09375,-0.00076421,-0.45970634
7250.0,-0.01432439,-0.45569381
7253.90625,-0.03843492,-0.44732714
7257.8125,-0.00472924,-0.43532309
7261.71875,-0.01157939,-0.42949575
7265.625,-0.02077958,-0.43687919
7269.53125,-0.01008409,-0.45191625
7273.4375,-0.02253753,-0.46022418
7277.34375,-0.01798339,-0.44945964
7281.25,-0.02523033,-0.41856173
7285.15625,0.01077486,-0.37980661
7289.0625,-0.00658534,-0.35046929
7292.96875,0.00542516,-0.33970267
7296.875,0.01086370,-0.34134501
7300.78125,-0.02017926,-0.33832827
7304.6875,0.01765585,-0.31578472
7308.59375,0.00737829,-0.27099270
7312.5,0.04171385,-0.21054578
7316.40625,0.01901307,-0.14188468
7320.3125,0.05073777,-0.07124600
7324.21875,0.06837825,-0.00532572
7328.125,0.06026826,0.05069545
7332.03125,0.07865581,0.09523745
7335.9375,0.09240901,0.13015671
7339.84375,0.08867908,0.16344544
7343.75,0.09445416,0.21014264
7347.65625,0.09127650,0.28082037
7351.5625,0.14227755,0.36693066
7355.46875,0.14420559,0.44590253
7359.375,0.15193510,0.50482744
7363.28125,0.13585961,0.55335730
7367.1875,0.18175741,0.61083066
7371.09375,0.17583036,0.68611479
7375.0,0.19403540,0.77074707
7378.90625,0.20735237,0.84660172
7382.8125,0.22725622,0.90095413
7386.71875,0.21996017,0.93849301
7390.625,0.22447389,0.97765571
7394.53125,0.24761514,1.03294861
7398.4375,0.25074312,1.10080194
7402.34375,0.24613594,1.15942335
7406.25,0.28304774,1.18114853
7410.15625,0.27457553,1.15398693
7414.0625,0.24376145,1.09806883
7417.96875,0.23646738,1.05497348
7421.875,0.23903085,1.05414581
7425.78125,0.25416780,1.08939958
7429.6875,0.26087472,1.12658918
7433.59375,0.27105013,1.13166976
7437.5,0.24613912,1.09378207
7441.40625,0.22886096,1.02608597
7445.3125,0.22983497,0.94850659
7449.21875,0.21928909,0.87244654
7453.125,0.19760297,0.79970932
7457.03125,0.19966818,0.72987688
7460.9375,0.16434507,0.66542077
7464.84375,0.17064621,0.61009914
7468.75,0.16861206,0.56426585
7472.65625,0.14862421,0.52320582
7476.5625,0.14569947,0.47900793
7480.46875,0.14058058,0.42419234
7484.375,0.12334773,0.35680422
7488.28125,0.11302489,0.28283411
7492.1875,0.10218608,0.21146710
7496.09375,0.08184540,0.14701933
7500.0,0.08649758,0.08616953
7503.90625,0.06859124,0.02338012
7507.8125,0.04538672,-0.04242859
7511.71875,0.06047133,-0.10667374
7515.625,0.04169063,-0.16145208
7519.53125,-0.00178659,-0.20047036
7523.4375,0.04975506,-0.22559066
7527.34375,0.02447892,-0.24451806
7531.25,0.01003352,-0.25980130
7535.15625,0.02406852,-0.26708841
7539.0625,0.01574052,-0.26560462
7542.96875,0.01085648,-0.26491019
7546.875,0.02586119,-0.27987397
7550.78125,0.01615780,-0.31809106
7554.6875,-0.00254089,-0.37017274
7558.59375,-0.00928895,-0.41406387
7562.5,-0.01766554,-0.43146828
7566.40625,0.00113207,-0.42059097
7570.3125,-0.00371063,-0.39433536
7574.21875,0.00699849,-0.36924732
7578.125,-0.00423838,-0.35738403
7582.03125,0.00136572,-0.36503044
7585.9375,0.00838561,-0.39222300
7589.84375,-0.01378016,-0.43036002
7593.75,-0.01939588,-0.46440506
7597.65625,-0.00832793,-0.48146683
7601.5625,-0.02366576,-0.47712237
7605.46875,-0.01068238,-0.45550522
7609.375,-0.01175564,-0.42703345
7613.28125,0.00827668,-0.40442365
7617.1875,-0.01269907,-0.39652658
7621.09375,0.00559143,-0.40423870
7625.0,-0.01328766,-0.42171603
7628.90625,-0.00913142,-0.44149086
7632.8125,-0.01420235,-0.45974946
7636.71875,-0.00950331,-0.47660863
7640.625,-0.01556415,-0.49007845
7644.53125,-0.02147218,-0.49177185
7648.4375,-0.02338514,-0.47282004
7652.34375,0.00226910,-0.43489742
7656.25,-0.00626779,-0.39290348
7660.15625,0.01088549,-0.36550117
7664.0625,0.00975241,-0.36297327
7667.96875,-0.01999610,-0.38368043
7671.875,0.01459362,-0.41991627
7675.78125,-0.01317984,-0.46276131
7679.6875,-0.02663551,-0.50175637
7683.59375,-0.02150902,-0.52641279
7687.5,-0.01411868,-0.53012896
7691.40625,-0.03636105,-0.51196438
7695.3125,-0.00199918,-0.47791827
7699.21875,-0.01162962,-0.44069472
7703.125,0.00016273,-0.41364735
7707.03125,-0.00317529,-0.40327749
7710.9375,-0.00392411,-0.40761757
7714.84375,0.00158348,-0.41949522
7718.75,-0.00098052,-0.43006527
7722.65625,-0.02341361,-0.43287849
7726.5625,0.01189069,-0.42864764
7730.46875,-0.01206596,-0.42516753
7734.375,-0.00596248,-0.43089530
7738.28125,0.00215730,-0.44802192
7742.1875,-0.01475120,-0.46891525
7746.09375,-0.01250781,-0.47935310
7750.0,-0.02759096,-0.47112864
7753.90625,0.00180609,-0.45360780
7757.8125,0.00201553,-0.44750449
7761.71875,-0.01070704,-0.46370789
7765.625,-0.01499036,-0.49137762
7769.53125,-0.03670007,-0.50961113
7773.4375,0.00040512,-0.50769156
7777.34375,-0.01559751,-0.49044695
7781.25,-0.00956291,-0.46742618
7785.15625,-0.00672246,-0.44329646
7789.0625,-0.00513646,-0.41866159
7792.96875,0.00326679,-0.39520758
7796.875,0.01174428,-0.37672654
7800.78125,0.01063269,-0.36452803
7804.6875,0.00076632,-0.35352352
7808.59375,0.01920140,-0.33415914
7812.5,0.02562085,-0.29693595
7816.40625,0.02400747,-0.23650739
7820.3125,0.04118115,-0.15726092
7824.21875,0.06420412,-0.07585455
7828.125,0.07228380,-0.01213266
7832.03125,0.07878041,0.02657231
7835.9375,0.08826367,0.05131020
7839.84375,0.06560569,0.07913876
7843.75,0.09524551,0.11334090
7847.65625,0.11336239,0.13896710
7851.5625,0.09257460,0.14036363
7855.46875,0.09057476,0.11744444
7859.375,0.08129825,0.08086284
7863.28125,0.08734217,0.03835355
7867.1875,0.07572948,-0.00781859
7871.09375,0.05579305,-0.05505712
7875.0,0.05917985,-0.09991840
7878.90625,0.04905962,-0.14273798
7882.8125,0.04426822,-0.18746604
7886.71875,0.03667772,-0.23563100
7890.625,0.01603322,-0.28308135
7894.53125,0.02346714,-0.32403606
7898.4375,0.01312842,-0.35671437
7902.34375,0.00848913,-0.38385013
7906.25,0.00182709,-0.40899435
7910.15625,0.00498325,-0.43255869
7914.0625,-0.00482479,-0.45038879
7917.96875,-0.01157096,-0.45719421
7921.875,0.01324379,-0.45212594
7925.78125,-0.01454573,-0.44010776
7929.6875,0.00238719,-0.42906797
7933.59375,0.00793829,-0.42659444
7937.5,0.00163657,-0.43589312
7941.40625,-0.00497027,-0.45373598
7945.3125,-0.00424670,-0.47507587
7949.21875,-0.02278940,-0.50139481
7953.125,-0.00756431,-0.54414630
7957.03125,-0.03364838,-0.61710274
7960.9375,-0.04161135,-0.71903950
7964.84375,-0.06834055,-0.81561202
7968.75,-0.05398166,-0.83090913
7972.65625,-0.04356774,-0.65803289
7976.5625,0.03641551,-0.19350669
7980.46875,0.19189075,0.61466116
7984.375,0.36096853,1.72777736
7988.28125,0.59820437,3.00258946
7992.1875,0.79436737,4.20956087
7996.09375,0.97381908,5.08741617
8000.0,1.02867877,5.42481613
8003.90625,0.96558660,5.13506460
8007.8125,0.81905264,4.28423119
8011.71875,0.60677004,3.06122351
8015.625,0.36379445,1.71000314
8019.53125,0.15274307,0.45467201
8023.4375,-0.00890072,-0.55388069
8027.34375,-0.14252560,-1.25326908
8031.25,-0.21348947,-1.65407991
8035.15625,-0.23044604,-1.81200278
8039.0625,-0.21278338,-1.79694974
8042.96875,-0.21537891,-1.66682243
8046.875,-0.18876609,-1.46090293
8050.78125,-0.12922570,-1.21393359
8054.6875,-0.07864285,-0.96752930
8058.59375,-0.04948463,-0.76181448
8062.5,-0.02761463,-0.61822969
8066.40625,-0.01763133,-0.53251374
8070.3125,0.00249069,-0.48243186
8074.21875,-0.00480210,-0.44309026
8078.125,0.01720999,-0.40040728
8082.03125,0.02042493,-0.35552913
8085.9375,0.01581628,-0.32051611
8089.84375,0.03069311,-0.31074446
8093.75,0.03674065,-0.33495146
8097.65625,0.00091169,-0.38533303
8101.5625,0.00932714,-0.43838045
8105.46875,0.00212064,-0.46869317
8109.375,-0.00439466,-0.46334580
8113.28125,0.00429222,-0.42784289
8117.1875,0.01766363,-0.38291872
8121.09375,0.02848038,-0.35205576
8125.0,0.03065708,-0.34473458
8128.90625,-0.00021309,-0.34917668
8132.8125,0.03288249,-0.34265187
8136.71875,0.02482804,-0.30885085
8140.625,0.05105667,-0.24652499
8144.53125,0.03972973,-0.16740510
8148.4375,0.06724884,-0.09007429
8152.34375,0.08303238,-0.03159165
8156.25,0.09268226,0.00273284
8160.15625,0.07686034,0.02366006
8164.0625,0.09083458,0.04942053
8167.96875,0.09381472,0.09070631
8171.875,0.10745946,0.14353076
8175.78125,0.13870333,0.19685534
8179.6875,0.10868437,0.24668710
8183.59375,0.13408467,0.30005056
8187.5,0.15374629,0.36547223
8191.40625,0.15923496,0.44368374
8195.3125,0.16379952,0.52652663
8199.21875,0.20158088,0.60180509
8203.125,0.20019095,0.66291595
8207.03125,0.20768152,0.71676117
8210.9375,0.20824309,0.77841222
8214.84375,0.23332788,0.85548884
8218.75,0.25585911,0.93938005
8222.65625,0.25230885,1.01146781
8226.5625,0.27592570,1.05665469
8230.46875,0.26620835,1.07363939
8234.375,0.26621163,1.07555592
8238.28125,0.28154764,1.08079445
8242.1875,0.27383089,1.10175490
8246.09375,0.26915875,1.13818300
8250.0,0.29393545,1.17619896
8253.90625,0.29864359,1.19610131
8257.8125,0.30497095,1.18779290
8261.71875,0.25956947,1.15871108
8265.625,0.28840971,1.12376130
8269.53125,0.27896219,1.09053278
8273.4375,0.26602411,1.05665839
8277.34375,0.26176956,1.01627696
8281.25,0.25512481,0.96585286
8285.15625,0.24334173,0.90721405
8289.0625,0.23338921,0.84625006
8292.96875,0.21222670,0.78632838
8296.875,0.22448908,0.72353154
8300.78125,0.19212802,0.65107095
8304.6875,0.19322771,0.56814814
8308.59375,0.16401157,0.48255751
8312.5,0.15605716,0.40438965
8316.40625,0.14354238,0.33744022
8320.3125,0.13636395,0.27695775
8324.21875,0.13893741,0.21678774
8328.125,0.09447471,0.15757869
8332.03125,0.11682473,0.10446920
8335.9375,0.08468939,0.05725353
8339.84375,0.10893568,0.00795640
8343.75,0.06474128,-0.05008650
8347.65625,0.07044797,-0.11365423
8351.5625,0.06927395,-0.17098258
8355.46875,0.03651229,-0.21088596
8359.375,0.04968450,-0.23324506
8363.28125,0.04548813,-0.25195003
8367.1875,0.04471404,-0.28385356
8371.09375,0.03388511,-0.33236903
8375.0,0.02027958,-0.38275865
8378.90625,0.00738589,-0.41431925
8382.8125,0.02008938,-0.41792831
8386.71875,0.01969731,-0.40335047
8390.625,0.01796458,-0.39143300
8394.53125,0.03052713,-0.39806449
8398.4375,0.02052248,-0.42075673
8402.34375,-0.00218492,-0.44001848
8406.25,0.00691875,-0.43863884
8410.15625,0.02969723,-0.41957304
8414.0625,0.02335647,-0.40105996
8417.96875,0.01689561,-0.39752758
8421.875,0.01071403,-0.41018653
8425.78125,0.02716048,-0.43113267
8429.6875,0.00496261,-0.44971427
8433.59375,0.00598580,-0.45792124
8437.5,0.02686622,-0.45489159
8441.40625,-0.00801747,-0.44634810
8445.3125,0.02699364,-0.44016770
8449.21875,0.00823192,-0.44281045
8453.125,0.01847546,-0.45608887
8457.03125,0.00866407,-0.47439545
8460.9375,-0.00825034,-0.48690093
8464.84375,0.01827094,-0.48520637
8468.75,0.00571510,-0.46943468
8472.65625,0.01289954,-0.44755322
8476.5625,0.01883517,-0.42993447
8480.46875,0.01623784,-0.42299929
8484.375,0.01582380,-0.42568699
8488.28125,0.02190871,-0.43207395
8492.1875,-0.00223429,-0.43811491
8496.09375,0.03923301,-0.44482785
8500.0,-0.00365702,-0.45382115
8503.90625,0.01223110,-0.46225756
8507.8125,0.01469229,-0.46477276
8511.71875,0.00876501,-0.45802647
8515.625,0.02387912,-0.44182238
8519.53125,0.00910493,-0.41878632
8523.4375,0.01567364,-0.39515948
8527.34375,0.04680231,-0.37952268
8531.25,0.01001955,-0.37734264
8535.15625,0.04335961,-0.38727188
8539.0625,-0.00119844,-0.40465945
8542.96875,0.02255465,-0.42785394
8546.875,0.01825642,-0.45799258
8550.78125,0.02371284,-0.49001327
8554.6875,-0.01194024,-0.50779700
8558.59375,-0.00869544,-0.49694210
8562.5,0.02375982,-0.46284270
8566.40625,0.02609962,-0.42822948
8570.3125,0.02421300,-0.41142473
8574.21875,0.01042924,-0.41245082
8578.125,0.02236656,-0.41943237
8582.03125,0.02109698,-0.42203596
8585.9375,0.00937741,-0.41855675
8589.84375,0.03912112,-0.41464254
8593.75,0.01622310,-0.41623828
8597.65625,0.01078437,-0.42408374
8601.5625,0.02170445,-0.43602622
8605.46875,0.01283533,-0.45082384
8609.375,0.02121329,-0.46559861
8613.28125,0.00790405,-0.47229958
8617.1875,0.00968098,-0.46145168
8621.09375,0.01516368,-0.43012723
8625.0,0.03620322,-0.38481843
8628.90625,0.02351760,-0.33780518
8632.8125,0.04940566,-0.30218059
8636.71875,0.05237313,-0.28506556
8640.625,0.03409475,-0.27958131
8644.53125,0.04184854,-0.26627433
8648.4375,0.06939405,-0.22683001
8652.34375,0.06041318,-0.15715913
8656.25,0.06914413,-0.07148790
8660.15625,0.10414255,0.00325543
8664.0625,0.10743293,0.04440201
8667.96875,0.10790679,0.05208335
8671.875,0.08656031,0.04899885
8675.78125,0.11560473,0.05973851
8679.6875,0.09684959,0.09106509
8683.59375,0.12103970,0.12864262
8687.5,0.12134580,0.14861815
8691.40625,0.13523190,0.13579558
8695.3125,0.09201462,0.09508754
8699.21875,0.10243554,0.04459276
8703.125,0.09588544,-0.00166815
8707.03125,0.08788478,-0.04210676
8710.9375,0.07985329,-0.08308358
8714.84375,0.07818900,-0.13081396
8718.75,0.06215707,-0.18547717
8722.65625,0.04368046,-0.24133849
8726.5625,0.03897772,-0.29455906
8730.46875,0.04968201,-0.34876248
8734.375,0.02819695,-0.40746510
8738.28125,0.00484309,-0.46252775
8742.1875,0.00697507,-0.49682745
8746.09375,0.00933519,-0.50036949
8750.0,0.00718989,-0.48216295
8753.90625,0.02465722,-0.46487641
8757.8125,0.02306303,-0.46476376
8761.71875,-0.00058962,-0.47582969
8765.625,0.00788679,-0.47734490
8769.53125,0.02510341,-0.45662415
8773.4375,0.02469843,-0.42078179
8777.34375,0.01751369,-0.39014342
8781.25,0.04277560,-0.38707188
8785.15625,0.00176260,-0.42937446
8789.0625,0.01578140,-0.52579659
8792.96875,-0.01029556,-0.66733694
8796.875,-0.05714167,-0.81502515
8800.78125,-0.05724311,-0.89477015
8804.6875,-0.03081675,-0.80543363
8808.59375,0.01547063,-0.43971837
8812.5,0.13746846,0.27786508
8816.40625,0.31906134,1.34117687
8820.3125,0.54688781,2.62902927
8824.21875,0.76687723,3.91565776
8828.125,0.96191788,4.92759371
8832.03125,1.04485977,5.42751932
8835.9375,1.01295912,5.29325533
8839.84375,0.88834572,4.55786228
8843.75,0.67125821,3.39293814
8847.65625,0.45999193,2.04505968
8851.5625,0.21079862,0.75551325
8855.46875,0.04033369,-0.30465442
8859.375,-0.08959281,-1.06275940
8863.28125,-0.16172308,-1.53026092
8867.1875,-0.19274479,-1.76130235
8871.09375,-0.23218067,-1.81410527
8875.0,-0.20516540,-1.73700297
8878.90625,-0.17346963,-1.57294309
8882.8125,-0.13542089,-1.36185479
8886.71875,-0.10581826,-1.13535309
8890.625,-0.04921247,-0.91390061
8894.53125,-0.04591940,-0.71207786
8898.4375,0.01339911,-0.54618806
8902.34375,0.01791178,-0.43411767
8906.25,0.02771325,-0.38543200
8910.15625,0.04124175,-0.39145774
8914.0625,0.01961970,-0.42503741
8917.96875,0.01326698,-0.45264316
8921.875,0.00047156,-0.45418397
8925.78125,0.03804864,-0.43495259
8929.6875,0.03496362,-0.41528583
8933.59375,0.02051515,-0.40776455
8937.5,0.01489554,-0.40747792
8941.40625,0.03354824,-0.40173104
8945.3125,0.03499094,-0.38317245
8949.21875,0.01991344,-0.35584965
8953.125,0.05442462,-0.33365291
8957.03125,0.03306699,-0.32900149
8960.9375,0.05031728,-0.33781523
8964.84375,0.02478260,-0.33893976
8968.75,0.03840956,-0.31350106
8972.65625,0.05801610,-0.26440310
8976.5625,0.04931525,-0.21440701
8980.46875,0.08938481,-0.18427584
8984.375,0.05099582,-0.17184016
8988.28125,0.07587966,-0.15209036
8992.1875,0.06783096,-0.09968749
8996.09375,0.09397167,-0.01303523
9000.0,0.12329905,0.08382011
9003.90625,0.12108136,0.16228712
9007.8125,0.12580542,0.21046071
9011.71875,0.15436248,0.23700048
9015.625,0.13136062,0.26249576
9019.53125,0.14670491,0.30759493
9023.4375,0.15444548,0.38117108
9027.34375,0.19915053,0.47528750
9031.25,0.17786458,0.57198143
9035.15625,0.22639327,0.65592307
9039.0625,0.21281339,0.72388947
9042.96875,0.23038563,0.78440678
9046.875,0.23933935,0.84637582
9050.78125,0.26448143,0.90858436
9054.6875,0.25761157,0.96291423
9058.59375,0.26857981,1.00485969
9062.5,0.27619553,1.03699708
9066.40625,0.28463918,1.06473076
9070.3125,0.28037763,1.09223831
9074.21875,0.29555041,1.12092137
9078.125,0.28515959,1.14817226
9082.03125,0.30577001,1.16708851
9085.9375,0.29282731,1.17061222
9089.84375,0.31430382,1.15923584
9093.75,0.27717468,1.14287412
9097.65625,0.29169244,1.13002038
9101.5625,0.28271839,1.11513138
9105.46875,0.29879713,1.08287966
9109.375,0.27567589,1.02721620
9113.28125,0.25808874,0.96150982
9117.1875,0.24844696,0.90608805
9121.09375,0.23154190,0.86680639
9125.0,0.25400299,0.82823175
9128.90625,0.24356724,0.76948434
9132.8125,0.20464545,0.68551618
9136.71875,0.18431768,0.58935547
9140.625,0.18684928,0.49597704
9144.53125,0.17833985,0.41124490
9148.4375,0.14618419,0.33502227
9152.34375,0.14094861,0.26577318
9156.25,0.12818240,0.20021458
9160.15625,0.12044603,0.13478954
9164.0625,0.11958972,0.07121103
9167.96875,0.09112493,0.01783711
9171.875,0.07269163,-0.01966218
9175.78125,0.11142781,-0.04869919
9179.6875,0.07407718,-0.08427498
9183.59375,0.07703446,-0.13169143
9187.5,0.05849415,-0.17948996
9191.40625,0.06010772,-0.21047856
9195.3125,0.05669868,-0.21874380
9199.21875,0.04639658,-0.21766454
9203.125,0.07464959,-0.23026444
9207.03125,0.04783231,-0.26744950
9210.9375,0.03278362,-0.31651211
9214.84375,0.03470873,-0.35410559
9218.75,0.03106670,-0.36767295
9222.65625,0.02602101,-0.36277124
9226.5625,0.04016671,-0.35557300
9230.46875,0.03833333,-0.36111930
9234.375,0.02316467,-0.38390860
9238.28125,0.02554404,-0.41561687
9242.1875,0.00632883,-0.44225362
9246.09375,0.02671765,-0.45497629
9250.0,0.01836306,-0.45455250
9253.90625,0.00904146,-0.44767079
9257.8125,0.01450565,-0.44219753
9261.71875,0.03605007,-0.44334090
9265.625,0.00634434,-0.44931641
9269.53125,0.00694067,-0.45322406
9273.4375,0.02221188,-0.45248666
9277.34375,0.02279137,-0.45199227
9281.25,0.01545023,-0.45565218
9285.15625,0.00409655,-0.46053731
9289.0625,0.00936148,-0.46169019
9292.96875,0.04079294,-0.45674095
9296.875,-0.00027677,-0.44339374
9300.78125,0.01904553,-0.41971847
9304.6875,0.02744833,-0.39120612
9308.59375,0.02514994,-0.37229168
9312.5,0.04433190,-0.37618709
9316.40625,0.02128849,-0.40250948
9320.3125,0.01129402,-0.43545112
9324.21875,0.00774589,-0.45662692
9328.125,0.01306938,-0.46115988
9332.03125,0.03304750,-0.45887905
9335.9375,0.00271930,-0.45904988
9339.84375,0.01930986,-0.45801112
9343.75,0.00614774,-0.44523799
9347.65625,0.01477034,-0.42020640
9351.5625,0.04026951,-0.39900854
9355.46875,0.01892279,-0.40107387
9359.375,0.02128662,-0.43036059
9363.28125,0.00968684,-0.47167763
9367.1875,-0.00309445,-0.50416011
9371.09375,0.00524066,-0.51698917
9375.0,0.01001702,-0.51295173
9378.90625,0.01505760,-0.49907669
9382.8125,-0.00844581,-0.47849977
9386.71875,0.01368752,-0.45373508
9390.625,0.03296174,-0.43179467
9394.53125,0.00942700,-0.42011562
9398.4375,0.02459770,-0.41997632
9402.34375,0.01807230,-0.42595169
9406.25,0.01466690,-0.42961997
9410.15625,0.01197893,-0.42611715
9414.0625,0.02403898,-0.42018193
9417.96875,0.03566667,-0.42167768
9421.875,-0.00669766,-0.43257555
9425.78125,0.02778116,-0.44268665
9429.6875,0.01045080,-0.43946406
9433.59375,0.01968843,-0.41902754
9437.5,0.02869784,-0.38873994
9441.40625,0.01811552,-0.36239690
9445.3125,0.04013586,-0.35244516
9449.21875,0.03052687,-0.36293349
9453.125,0.01504445,-0.38696432
9457.03125,0.03108888,-0.41086063
9460.9375,0.00507430,-0.42153877
9464.84375,0.02925307,-0.41138142
9468.75,0.02366608,-0.37920219
9472.65625,0.02552156,-0.32971248
9476.5625,0.05453521,-0.27254647
9480.46875,0.05223761,-0.21843822
9484.375,0.05183290,-0.17370285
9488.28125,0.07104781,-0.13836344
9492.1875,0.07499925,-0.10712547
9496.09375,0.08366083,-0.07015985
9500.0,0.07474429,-0.01810446
9503.90625,0.09545075,0.04708575
9507.8125,0.11421841,0.10675924
9511.71875,0.11652118,0.13579677
9515.625,0.11444171,0.12132174
9519.53125,0.09889638,0.07403187
9523.4375,0.10075944,0.02389756
9527.34375,0.07526640,0.00098101
9531.25,0.08504767,0.01045964
9535.15625,0.10450719,0.02338336
9539.0625,0.10093282,-0.00006944
9542.96875,0.07158940,-0.07264854
9546.875,0.06103174,-0.16706181
9550.78125,0.03488602,-0.24116620
9554.6875,0.04698732,-0.27439636
9558.59375,0.03060951,-0.28164247
9562.5,0.05731793,-0.29482174
9566.40625,0.03259927,-0.33041015
9570.3125,0.02139773,-0.37400168
9574.21875,0.00070138,-0.39776960
9578.125,0.03512119,-0.39125261
9582.03125,0.01657754,-0.37108386
9585.9375,0.03980837,-0.36203566
9589.84375,0.02167923,-0.37327507
9593.75,0.01120288,-0.39368045
9597.65625,0.02163709,-0.40631112
9601.5625,0.02210780,-0.40382755
9605.46875,0.00521246,-0.39300716
9609.375,0.02801432,-0.39078254
9613.28125,0.03348796,-0.41384092
9617.1875,-0.00224623,-0.46672124
9621.09375,-0.03072235,-0.54311562
9625.0,-0.00672105,-0.63776696
9628.90625,-0.03270805,-0.74228668
9632.8125,-0.04981307,-0.81990677
9636.71875,-0.05945689,-0.78983420
9640.625,0.01025826,-0.54308826
9644.53125,0.06171240,0.01700625
9648.4375,0.26185745,0.92628860
9652.34375,0.45152092,2.12186313
9656.25,0.66247672,3.43172884
9660.15625,0.88188010,4.59984255
9664.0625,1.01884437,5.35053492
9667.96875,1.06096947,5.48370552
9671.875,0.95271975,4.95922279
9675.78125,0.74924237,3.91477060
9679.6875,0.52007371,2.60032368
9683.59375,0.30561566,1.27343452
9687.5,0.10238265,0.12036020
9691.40625,-0.02878622,-0.76631933
9695.3125,-0.16355255,-1.36828494
9699.21875,-0.20507951,-1.71102583
9703.125,-0.23563516,-1.83995092
9707.03125,-0.21763639,-1.80443072
9710.9375,-0.20857313,-1.64951181
9714.84375,-0.15076616,-1.41673124
9718.75,-0.12723006,-1.14971232
9722.65625,-0.06780474,-0.89561480
9726.5625,-0.02426081,-0.69618851
9730.46875,-0.01777027,-0.57246292
9734.375,-0.00491709,-0.51738703
9738.28125,-0.00046593,-0.50438106
9742.1875,-0.01065886,-0.50382137
9746.09375,-0.00017294,-0.49645114
9750.0,0.00464701,-0.47907624
9753.90625,-0.00189281,-0.46131128
9757.8125,0.02484859,-0.45442799
9761.71875,-0.01013436,-0.45932028
9765.625,0.00051920,-0.46576762
9769.53125,0.00354497,-0.46496129
9773.4375,0.01239006,-0.45896000
9777.34375,0.00410931,-0.45466414
9781.25,0.00262619,-0.45160723
9785.15625,0.00687105,-0.43912154
9789.0625,0.01657168,-0.40554461
9792.96875,0.01092741,-0.35051334
9796.875,0.04504324,-0.28884587
9800.78125,0.03599846,-0.24016918
9804.6875,0.05595082,-0.21217528
9808.59375,0.03905531,-0.19397663
9812.5,0.05923507,-0.16599166
9816.40625,0.05765326,-0.11659615
9820.3125,0.06790373,-0.05204411
9824.21875,0.09247043,0.00756129
9828.125,0.09049550,0.04464636
9832.03125,0.09374107,0.06046432
9835.9375,0.09837630,0.07601660
9839.84375,0.08869399,0.11571392
9843.75,0.11808790,0.18803294
9847.65625,0.12391178,0.28006843
9851.5625,0.16527106,0.37020513
9855.46875,0.14862774,0.44581664
9859.375,0.16868022,0.50904918
9863.28125,0.17724064,0.56854576
9867.1875,0.18300757,0.62898266
9871.09375,0.21476410,0.68826377
9875.0,0.20059021,0.74306440
9878.90625,0.23178385,0.79664153
9882.8125,0.21201958,0.85908628
9886.71875,0.23764050,0.93589222
9890.625,0.27387094,1.01682842
9894.53125,0.25886190,1.08073163
9898.4375,0.27080336,1.11168599
9902.34375,0.27697453,1.11028230
9906.25,0.27830124,1.09422445
9910.15625,0.24873447,1.08778453
9914.0625,0.26329276,1.10208237
9917.96875,0.29302761,1.12455022
9921.875,0.28257805,1.13424814
9925.78125,0.26097369,1.12473834
9929.6875,0.25759739,1.10413802
9933.59375,0.28361332,1.07795310
9937.5,0.25605422,1.04299033
9941.40625,0.25150257,0.99668169
9945.3125,0.24014422,0.94390911
9949.21875,0.22608936,0.89253658
9953.125,0.22918180,0.84430915
9957.03125,0.22063324,0.79204565
9960.9375,0.20009425,0.72737110
9964.84375,0.19039130,0.65043813
9968.75,0.16915123,0.57051384
9972.65625,0.18279050,0.49858528
9976.5625,0.13707338,0.44044724
9980.46875,0.14614511,0.39323711
9984.375,0.13938469,0.34607527
9988.28125,0.13332950,0.28722054
9992.1875,0.10909893,0.21352771
9996.09375,0.10423370,0.13337223
10000.0,0.08578573,0.06101456
10003.90625,0.06881978,0.00610055
10007.8125,0.07143260,-0.03493603
10011.71875,0.07424203,-0.07496075
10015.625,0.06271115,-0.11968883
10019.53125,0.03283067,-0.15917464
10023.4375,0.04188498,-0.18140000
10027.34375,0.05106819,-0.19037709
10031.25,0.03500004,-0.20487392
10035.15625,0.04355481,-0.24143930
10039.0625,0.02282924,-0.30054232
10042.96875,0.01644546,-0.36558574
10046.875,-0.02492602,-0.41507316
10050.78125,0.02807135,-0.43888035
10054.6875,-0.01021593,-0.44279897
10058.59375,0.00221633,-0.43896192
10062.5,-0.00580803,-0.43625861
10066.40625,-0.00463745,-0.43843615
10070.3125,0.01291057,-0.44526389
10074.21875,-0.01763701,-0.45333374
10078.125,0.00463936,-0.45789257
10082.03125,-0.01498008,-0.45607910
10085.9375,-0.00110779,-0.44956324
10089.84375,0.00369656,-0.44398543
10093.75,-0.00435267,-0.44394329
10097.65625,-0.00599157,-0.44783399
10101.5625,-0.00457624,-0.44926015
10105.46875,-0.00525919,-0.44374567
10109.375,0.00399429,-0.43239349
10113.28125,0.00113986,-0.41906971
10117.1875,-0.00877413,-0.40693349
10121.09375,0.02293936,-0.39849442
10125.0,-0.01246555,-0.39535370
10128.90625,0.01746305,-0.39596006
10132.8125,-0.00666797,-0.39598867
10136.71875,0.01125364,-0.39267787
10140.625,0.00808393,-0.38846633
10144.53125,-0.00874469,-0.39066383
10148.4375,0.00481404,-0.40737921
10152.34375,0.01962077,-0.43903250
10156.25,-0.02405863,-0.47081646
10160.15625,-0.02084682,-0.48092267
10164.0625,-0.01515402,-0.46295691
10167.96875,0.01642795,-0.43503511
10171.875,0.00062912,-0.42167035
10175.78125,-0.01385361,-0.43117771
10179.6875,-0.00793999,-0.45316097
10183.59375,-0.00248962,-0.47091520
10187.5,-0.01592916,-0.47235173
10191.40625,-0.00913619,-0.45590368
10195.3125,-0.00473133,-0.43218341
10199.21875,-0.00024859,-0.41785187
10203.125,0.00530865,-0.42360142
10207.03125,-0.01214365,-0.44600636
10210.9375,-0.00884868,-0.47025052
10214.84375,-0.02183225,-0.48147744
10218.75,-0.00814851,-0.47569814
10222.65625,-0.00546805,-0.46103549
10226.5625,-0.00770373,-0.44806182
10230.46875,-0.00166642,-0.43943733
10234.375,-0.02003811,-0.43087557
10238.28125,0.00613455,-0.42161706
10242.1875,-0.00542742,-0.41889119
10246.09375,0.00684619,-0.42857713
10250.0,-0.01900104,-0.44512010
10253.90625,-0.01000270,-0.45587474
10257.8125,-0.00640164,-0.45447254
10261.71875,-0.01551746,-0.44642144
10265.625,0.00526152,-0.44175965
10269.53125,-0.00767838,-0.44417050
10273.4375,-0.02404464,-0.44828197
10277.34375,0.00461765,-0.44663534
10281.25,-0.01376711,-0.43626764
10285.15625,-0.00169433,-0.41877726
10289.0625,0.00614548,-0.39798009
10292.96875,-0.01379808,-0.37841225
10296.875,0.01783822,-0.36316162
10300.78125,0.01475940,-0.35021603
10304.6875,-0.00825941,-0.33204502
10308.59375,0.03009953,-0.30251339
10312.5,0.01302503,-0.26384002
10316.40625,0.02192917,-0.22480890
10320.3125,0.05919522,-0.19173753
10324.21875,0.03227651,-0.15983196
10328.125,0.02744638,-0.11626365
10332.03125,0.06925834,-0.05608111
10335.9375,0.07259843,0.00906345
10339.84375,0.07079085,0.06134033
10343.75,0.09840797,0.09176434
10347.65625,0.07088993,0.10352889
10351.5625,0.07758422,0.10286494
10355.46875,0.09620123,0.08927600
10359.375,0.07400119,0.05788699
10363.28125,0.06439251,0.00920683
10367.1875,0.06335881,-0.04858518
10371.09375,0.04399700,-0.10589880
10375.0,0.03387524,-0.15746725
10378.90625,0.03830490,-0.20302917
10382.8125,0.02453321,-0.24345097
10386.71875,0.02029796,-0.27703887
10390.625,0.00462694,-0.30183482
10394.53125,0.01081878,-0.32157165
10398.4375,0.00804916,-0.34600019
10402.34375,0.00799024,-0.38209346
10406.25,-0.01173724,-0.42457682
10410.15625,-0.01497150,-0.45703605
10414.0625,-0.02308078,-0.46438992
10417.96875,-0.00702482,-0.44527435
10421.875,-0.00080701,-0.41243070
10425.78125,-0.00116869,-0.38208288
10429.6875,-0.00340356,-0.36477602
10433.59375,0.00105978,-0.36471453
10437.5,0.00746421,-0.38143712
10441.40625,-0.01087859,-0.40873507
10445.3125,-0.00713202,-0.43684390
10449.21875,-0.02651731,-0.46238974
10453.125,-0.01859131,-0.49662715
10457.03125,-0.02487573,-0.55845910
10460.9375,-0.05982627,-0.65299320
10464.84375,-0.04695186,-0.74977797
10468.75,-0.07007558,-0.77273887
10472.65625,-0.04214909,-0.60986793
10476.5625,0.02743238,-0.14894700
10480.46875,0.18588002,0.66890949
10484.375,0.36158329,1.80262709
10488.28125,0.59857827,3.09539199
10492.1875,0.80952322,4.30201435
10496.09375,0.95929366,5.15591240
10500.0,1.01882315,5.45283556
10503.90625,0.95287496,5.11793423
10507.8125,0.79354042,4.22911453
10511.71875,0.58530140,2.98735166
10515.625,0.33102337,1.64549541
10519.53125,0.12606193,0.42455971
10523.4375,-0.02640184,-0.54398769
10527.34375,-0.13685597,-1.22348511
10531.25,-0.21897651,-1.63585007
10535.15625,-0.25329927,-1.82232940
10539.0625,-0.26372361,-1.82655382
10542.96875,-0.21743536,-1.69457543
10546.875,-0.19735804,-1.47641659
10550.78125,-0.15317816,-1.22364283
10554.6875,-0.09870169,-0.98313248
10558.59375,-0.08045808,-0.78717148
10562.5,-0.04426398,-0.64615804
10566.40625,-0.02815680,-0.55173564
10570.3125,-0.03229475,-0.48859864
10574.21875,-0.02015305,-0.44668958
10578.125,-0.00069433,-0.42505652
10582.03125,-0.00943168,-0.42393398
10585.9375,-0.00989355,-0.43456507
10589.84375,-0.02734785,-0.44066581
10593.75,-0.01201488,-0.43073100
10597.65625,0.00499174,-0.40599483
10601.5625,-0.01171976,-0.37597179
10605.46875,-0.00239230,-0.35038009
10609.375,0.00601894,-0.33506167
10613.28125,0.02477504,-0.32842463
10617.1875,-0.02066782,-0.32065240
10621.09375,0.01415800,-0.30323893
10625.0,0.01839303,-0.27993333
10628.90625,0.00938198,-0.26343635
10632.8125,0.03594214,-0.26117349
10636.71875,0.00247990,-0.26586238
10640.625,0.00501855,-0.26068631
10644.53125,0.02636718,-0.23441313
10648.4375,0.04252442,-0.18900760
10652.34375,0.02872499,-0.13208349
10656.25,0.04854044,-0.06834907
10660.15625,0.05065238,-0.00162934
10664.0625,0.08914668,0.06029484
10667.96875,0.06843843,0.10896266
10671.875,0.10122842,0.14420605
10675.78125,0.07096267,0.17726161
10679.6875,0.10548304,0.22227229
10683.59375,0.11794823,0.28506798
10687.5,0.11390701,0.36128321
10691.40625,0.13758488,0.44236827
10695.3125,0.15722466,0.52137274
10699.21875,0.16187567,0.59595203
10703.125,0.17094797,0.66773140
10707.03125,0.18742202,0.73844975
10710.9375,0.20488332,0.80809271
10714.84375,0.21651265,0.87710315
10718.75,0.21319959,0.94715703
10722.65625,0.24047162,1.01707125
10726.5625,0.23630726,1.07904267
10730.46875,0.27410489,1.12219715
10734.375,0.25038025,1.14256406
10738.28125,0.25810567,1.14901721
10742.1875,0.24637096,1.15626836
10746.09375,0.27891707,1.17130661
10750.0,0.25910884,1.18812501
10753.90625,0.26505578,1.19447398
10757.8125,0.27001721,1.18192852
10761.71875,0.25085270,1.15014970
10765.625,0.25324973,1.10254657
10769.53125,0.23944119,1.04031277
10773.4375,0.22764188,0.96462226
10777.34375,0.21355493,0.88378972
10781.25,0.19554219,0.81287968
10785.15625,0.19680728,0.76376814
10789.0625,0.17565693,0.73639721
10792.96875,0.19617088,0.71876574
10796.875,0.16206200,0.69335020
10800.78125,0.19568573,0.64627784
10804.6875,0.14901640,0.57637101
10808.59375,0.13087976,0.49554008
10812.5,0.14501154,0.41703171
10816.40625,0.11848793,0.34532145
10820.3125,0.10175310,0.27793658
10824.21875,0.09041549,0.21099783
10828.125,0.09981166,0.14189854
10832.03125,0.06346464,0.07111551
10835.9375,0.04906441,0.00103696
10839.84375,0.05224943,-0.06767979
10843.75,0.05004909,-0.13390718
10847.65625,0.01297294,-0.19089419
10851.5625,0.01520920,-0.23133269
10855.46875,0.01407249,-0.25833201
10859.375,0.01305476,-0.28439701
10863.28125,0.01273383,-0.31803361
10867.1875,-0.01396694,-0.35491866
10871.09375,-0.00056647,-0.38205081
10875.0,-0.02164803,-0.38821226
10878.90625,0.00670764,-0.37230074
10882.8125,-0.00897255,-0.34608451
10886.71875,0.00158474,-0.32963967
10890.625,0.00685143,-0.33921006
10894.53125,-0.00842854,-0.37405592
10898.4375,-0.01165644,-0.41467652
10902.34375,-0.02221150,-0.43685260
10906.25,-0.02182227,-0.43029013
10910.15625,-0.00914472,-0.40641591
10914.0625,-0.00574601,-0.38875306
10917.96875,0.00439359,-0.39235011
10921.875,-0.02663921,-0.41074988
10925.78125,-0.02987403,-0.42583731
10929.6875,0.00461150,-0.42935452
10933.59375,-0.01810013,-0.42893690
10937.5,-0.03088637,-0.43540761
10941.40625,-0.00696650,-0.45117489
10945.3125,-0.02148595,-0.46832556
10949.21875,-0.02504998,-0.47332796
10953.125,-0.03464638,-0.45760724
10957.03125,-0.00933581,-0.42718869
10960.9375,-0.00902394,-0.39972034
10964.84375,0.00009013,-0.39034113
10968.75,-0.01781601,-0.40099356
10972.65625,-0.02390723,-0.42297477
10976.5625,-0.01765210,-0.44760698
10980.46875,-0.01674340,-0.47188452
10984.375,-0.02352923,-0.49372354
10988.28125,-0.03564018,-0.50577128
10992.1875,-0.03240428,-0.49862763
10996.09375,-0.02105314,-0.47153708
11000.0,-0.02449511,-0.43817753
11003.90625,0.00050890,-0.41854143
11007.8125,-0.01773809,-0.42195153
11011.71875,-0.02169823,-0.43868509
11015.625,-0.02703623,-0.45056066
11019.53125,-0.01200617,-0.44778523
11023.4375,-0.02133365,-0.43356615
11027.34375,-0.00764105,-0.41692531
11031.25,-0.01790000,-0.40554467
11035.15625,-0.00589566,-0.40270823
11039.0625,-0.02058920,-0.40640715
11042.96875,-0.01091566,-0.41118807
11046.875,-0.00404071,-0.41214609
11050.78125,-0.02408506,-0.40692765
11054.6875,-0.00169191,-0.39483091
11058.59375,-0.01951244,-0.37659019
11062.5,0.00696739,-0.35639390
11066.40625,-0.00086012,-0.34246174
11070.3125,-0.00539206,-0.34280282
11074.21875,-0.00687453,-0.35921758
11078.125,0.00275467,-0.38487786
11082.03125,-0.02403425,-0.40757465
11085.9375,-0.00668400,-0.41732660
11089.84375,-0.01871033,-0.41312256
11093.75,-0.01382038,-0.40405732
11097.65625,-0.01109697,-0.40467203
11101.5625,-0.00426857,-0.42481109
11105.46875,-0.02531934,-0.45842594
11109.375,-0.02877450,-0.48422155
11113.28125,-0.03335646,-0.48246473
11117.1875,-0.00795504,-0.45113629
11121.09375,-0.01917815,-0.40500933
11125.0,-0.00368239,-0.36347204
11128.90625,0.00395077,-0.34040990
11132.8125,0.00921459,-0.33805904
11136.71875,-0.02372412,-0.34528616
11140.625,0.00732272,-0.34453794
11144.53125,0.01358858,-0.32176435
11148.4375,0.00771681,-0.27059779
11152.34375,0.00925850,-0.19496512
11156.25,0.04205765,-0.11199799
11160.15625,0.07357641,-0.04431427
11164.0625,0.04110167,-0.00318819
11167.96875,0.06220351,0.01828078
11171.875,0.07743206,0.03700431
11175.78125,0.04711625,0.06851019
11179.6875,0.10109908,0.11714988
11183.59375,0.07136922,0.16957542
11187.5,0.09310589,0.19883277
11191.40625,0.11036577,0.18159802
11195.3125,0.07399483,0.11751921
11199.21875,0.05086013,0.03097175
11203.125,0.05465538,-0.04910687
11207.03125,0.03988666,-0.10867605
11210.9375,0.04404973,-0.14917451
11214.84375,0.01541491,-0.17802696
11218.75,0.03179967,-0.20348209
11222.65625,0.00266469,-0.23369652
11226.5625,0.04324247,-0.27337950
11230.46875,-0.01843590,-0.31915349
11234.375,0.00492673,-0.36193508
11238.28125,-0.02608733,-0.39663261
11242.1875,0.00302179,-0.42689395
11246.09375,-0.01346871,-0.45797709
11250.0,-0.03879664,-0.48806581
11253.90625,-0.02783466,-0.50984496
11257.8125,-0.02483533,-0.51792938
11261.71875,-0.03357192,-0.51210934
11265.625,-0.01731684,-0.49637803
11269.53125,-0.03096845,-0.47711629
11273.4375,-0.01918906,-0.46079957
11277.34375,-0.01281506,-0.45261669
11281.25,-0.02064016,-0.45793995
11285.15625,-0.03030821,-0.48619032
11289.0625,-0.04006689,-0.55193800
11292.96875,-0.04498243,-0.66432816
11296.875,-0.07574812,-0.80334860
11300.78125,-0.08233333,-0.89805043
11304.6875,-0.09681882,-0.82989204
11308.59375,-0.02373683,-0.47149917
11312.5,0.10944836,0.25541139
11316.40625,0.28169554,1.33298755
11320.3125,0.50717187,2.62976074
11324.21875,0.73487896,3.91816258
11328.125,0.93427855,4.92924595
11332.03125,1.00293911,5.43277359
11335.9375,0.96748990,5.30882931
11339.84375,0.87113166,4.58106709
11343.75,0.65157038,3.40682745
11347.65625,0.40394509,2.02995062
11351.5625,0.17614096,0.70566124
11355.46875,-0.01378644,-0.37554410
11359.375,-0.13199264,-1.13017988
11363.28125,-0.20731799,-1.57478046
11367.1875,-0.23118173,-1.78099990
11371.09375,-0.25987849,-1.82251978
11375.0,-0.24098589,-1.74590492
11378.90625,-0.21339175,-1.57677948
11382.8125,-0.17921357,-1.34350896
11386.71875,-0.11814459,-1.09012020
11390.625,-0.08469176,-0.86548197
11394.53125,-0.06243879,-0.70102251
11398.4375,-0.03100697,-0.59920907
11402.34375,-0.04707930,-0.54144645
11406.25,-0.02219572,-0.50637442
11410.15625,-0.02233330,-0.48301056
11414.0625,-0.00791799,-0.46944466
11417.96875,-0.02437333,-0.46341303
11421.875,-0.01861665,-0.45898494
11425.78125,-0.01844807,-0.45243359
11429.6875,-0.00896129,-0.44683072
11433.59375,-0.01438555,-0.44760925
11437.5,-0.01375982,-0.45389026
11441.40625,-0.01994239,-0.45575818
11445.3125,-0.01555195,-0.44081354
11449.21875,0.00332789,-0.40321824
11453.125,-0.00934398,-0.34768853
11457.03125,0.01534912,-0.28786534
11460.9375,0.02934028,-0.24003077
11464.84375,0.02850438,-0.21325089
11468.75,0.02196360,-0.20389502
11472.65625,0.02623265,-0.20094992
11476.5625,0.03459531,-0.19488682
11480.46875,0.03308538,-0.18019046
11484.375,0.03764348,-0.15323283
11488.28125,0.04584257,-0.11221611
11492.1875,0.04510712,-0.06057686
11496.09375,0.05773707,-0.00913652
11500.0,0.09401209,0.03090662
11503.90625,0.06767871,0.06309070
11507.8125,0.07939278,0.10975435
11511.71875,0.08193532,0.19177522
11515.625,0.12454010,0.30385768
11519.53125,0.15051895,0.41663900
11523.4375,0.15366295,0.50461721
11527.34375,0.14858006,0.56648368
11531.25,0.17420422,0.61714560
11535.15625,0.18173343,0.66819936
11539.0625,0.19652826,0.72144979
11542.96875,0.18812335,0.77563876
11546.875,0.22164756,0.83259147
11550.78125,0.21227279,0.89696944
11554.6875,0.23509718,0.97171003
11558.59375,0.24775387,1.05292058
11562.5,0.25774369,1.12882388
11566.40625,0.27558541,1.18461323
11570.3125,0.27729845,1.20996284
11574.21875,0.26137540,1.20432496
11578.125,0.29331934,1.17824483
11582.03125,0.24780704,1.15037858
11585.9375,0.25972024,1.13738179
11589.84375,0.26833966,1.14113176
11593.75,0.27005371,1.14772618
11597.65625,0.25893250,1.13960910
11601.5625,0.25272557,1.10592008
11605.46875,0.26542589,1.04588473
11609.375,0.21789868,0.97002405
11613.28125,0.22709745,0.89620751
11617.1875,0.21106341,0.83870322
11621.09375,0.20882697,0.79967481
11625.0,0.19221619,0.76908499
11628.90625,0.19313177,0.72967851
11632.8125,0.18966775,0.66623700
11636.71875,0.18358952,0.57827926
11640.625,0.12551555,0.48360997
11644.53125,0.13371073,0.40262142
11648.4375,0.14280453,0.33994806
11652.34375,0.11758093,0.28645030
11656.25,0.10230926,0.23337239
11660.15625,0.09410464,0.17697081
11664.0625,0.09665406,0.11532605
11667.96875,0.07420581,0.04985430
11671.875,0.06920166,-0.01134077
11675.78125,0.05566438,-0.05723140
11679.6875,0.05154122,-0.08310264
11683.59375,0.04729419,-0.09659308
11687.5,0.06110418,-0.11407220
11691.40625,0.03974391,-0.14900106
11695.3125,0.02882582,-0.20260149
11699.21875,0.03561726,-0.26431152
11703.125,-0.00117555,-0.31938887
11707.03125,0.00958361,-0.35810199
11710.9375,0.01199145,-0.38069674
11714.84375,-0.00599902,-0.39404941
11718.75,0.00301518,-0.40467265
11722.65625,-0.00039602,-0.41465938
11726.5625,-0.00439764,-0.42116252
11730.46875,-0.00734851,-0.41993585
11734.375,-0.00083481,-0.41183606
11738.28125,0.00938018,-0.40445161
11742.1875,-0.00834821,-0.40534166
11746.09375,0.00000600,-0.41506660
11750.0,0.00135977,-0.42746317
11753.90625,-0.01142789,-0.43576929
11757.8125,-0.00732450,-0.43929404
11761.71875,0.00643177,-0.44404423
11765.625,-0.02309180,-0.45574316
11769.53125,-0.00483428,-0.47359931
11773.4375,-0.00564955,-0.48979846
11777.34375,-0.01273763,-0.49197370
11781.25,-0.03231204,-0.47109923
11785.15625,0.00238756,-0.43340787
11789.0625,0.02278662,-0.39962557
11792.96875,-0.00841569,-0.38692129
11796.875,0.00433898,-0.39596954
11800.78125,-0.00253746,-0.41669393
11804.6875,-0.00269644,-0.43923479
11808.59375,-0.00852112,-0.45746711
11812.5,-0.00123777,-0.46765223
11816.40625,-0.01720171,-0.46807063
11820.3125,-0.00616037,-0.46099517
11824.21875,-0.00438124,-0.45346025
11828.125,-0.00403903,-0.45342219
11832.03125,-0.01496446,-0.46445546
11835.9375,0.00454074,-0.48331898
11839.84375,-0.02313665,-0.50062221
11843.75,-0.02024856,-0.50566912
11847.65625,-0.00274324,-0.49475053
11851.5625,-0.02588582,-0.47525993
11855.46875,0.02142352,-0.45975980
11859.375,-0.02008519,-0.45455092
11863.28125,-0.01032413,-0.45425588
11867.1875,0.01168663,-0.44764730
11871.09375,-0.01970051,-0.42802513
11875.0,0.01459647,-0.40013117
11878.90625,0.01245073,-0.37815681
11882.8125,0.01011505,-0.37390149
11886.71875,-0.00314577,-0.38688493
11890.625,0.01434271,-0.40730456
11894.53125,-0.00415214,-0.42483410
11898.4375,0.00828585,-0.43275478
11902.34375,-0.01382803,-0.42883208
11906.25,0.00894740,-0.41699129
11910.15625,0.00704906,-0.40657449
11914.0625,0.00558098,-0.40595275
11917.96875,0.00883480,-0.41573468
11921.875,-0.01397471,-0.42915526
11925.78125,0.01017041,-0.43885764
11929.6875,-0.00357622,-0.44197395
11933.59375,0.00001371,-0.43946129
11937.5,0.00560892,-0.43350843
11941.40625,-0.00740231,-0.42654398
11945.3125,0.01078571,-0.42101157
11949.21875,-0.00089837,-0.41807836
11953.125,0.01161820,-0.41555312
11957.03125,0.00526043,-0.40803859
11960.9375,-0.00250884,-0.39149639
11964.84375,0.02210804,-0.36818936
11968.75,0.01504103,-0.34472448
11972.65625,0.02697290,-0.32438502
11976.5625,0.02159203,-0.30411732
11980.46875,0.01603626,-0.28005674
11984.375,0.05328552,-0.25207311
11988.28125,0.02757209,-0.21980579
11992.1875,0.05304622,-0.17813560
11996.09375,0.04926144,-0.12114657
12000.0,0.08412901,-0.04850136
12003.90625,0.06307111,0.03305836
12007.8125,0.10252264,0.11055060
12011.71875,0.12789842,0.16821687
12015.625,0.08912756,0.19462597
12019.53125,0.11268351,0.18582761
12023.4375,0.12030171,0.14415666
12027.34375,0.07716048,0.08009637
12031.25,0.08612375,0.01175971
12035.15625,0.06964942,-0.04408684
12039.0625,0.06875884,-0.07995906
12042.96875,0.05528694,-0.09753184
12046.875,0.07316184,-0.10421388
12050.78125,0.04418910,-0.11142336
12054.6875,0.06358546,-0.13393936
12058.59375,0.05423616,-0.18452279
12062.5,0.03675749,-0.26209602
12066.40625,0.01261931,-0.34586197
12070.3125,0.00791973,-0.40732092
12074.21875,0.00228422,-0.43120652
12078.125,0.01754981,-0.42446983
12082.03125,0.00833030,-0.40611631
12085.9375,0.00822577,-0.39184967
12089.84375,0.00825866,-0.38891459
12093.75,0.02899767,-0.39826974
12097.65625,0.00361591,-0.41409835
12101.5625,0.00146386,-0.42421502
12105.46875,0.00945703,-0.41910255
12109.375,0.00898693,-0.40310305
12113.28125,0.01863187,-0.39531484
12117.1875,0.01629667,-0.41852939
12121.09375,-0.01821809,-0.48626760
12125.0,-0.01576406,-0.59671885
12128.90625,-0.04491587,-0.72889507
12132.8125,-0.04921455,-0.83240896
12136.71875,-0.05769383,-0.81873840
12140.625,-0.02417200,-0.57395113
12144.53125,0.07938576,0.00052890
12148.4375,0.24663332,0.93629646
12152.34375,0.43994248,2.15968657
12156.25,0.68868971,3.48351479
12160.15625,0.88727200,4.64031839
12164.0625,1.01163757,5.35722113
12167.96875,1.03800774,5.44845486
12171.875,0.94363725,4.88580608
12175.78125,0.74544519,3.81114435
12179.6875,0.47884694,2.47700262
12183.59375,0.27613360,1.14403117
12187.5,0.10304434,-0.00092545
12191.40625,-0.07482125,-0.86587429
12195.3125,-0.15416692,-1.43289340
12199.21875,-0.23422495,-1.73210311
12203.125,-0.20551644,-1.81939936
12207.03125,-0.23202747,-1.75448096
12210.9375,-0.18421400,-1.58760703
12214.84375,-0.15927182,-1.36205566
12218.75,-0.10882861,-1.12081409
12222.65625,-0.05868134,-0.90212023
12226.5625,-0.04334979,-0.72729301
12230.46875,-0.03364773,-0.59846550
12234.375,0.01050900,-0.51038969
12238.28125,-0.00070693,-0.45922527
12242.1875,0.02343610,-0.43793225
12246.09375,-0.00013129,-0.43068850
12250.0,0.00654834,-0.42041966
12253.90625,0.02037526,-0.40314007
12257.8125,0.02394574,-0.39013848
12261.71875,0.02228645,-0.39295968
12265.625,0.00582791,-0.40812951
12269.53125,0.02303415,-0.41832855
12273.4375,0.00074843,-0.40808094
12277.34375,0.03113835,-0.37851384
12281.25,0.02494964,-0.34655285
12285.15625,0.03560776,-0.32862034
12289.0625,0.02339949,-0.32610011
12292.96875,0.03048994,-0.32686266
12296.875,0.04339824,-0.31675676
12300.78125,0.02432189,-0.28829262
12304.6875,0.03961011,-0.24474056
12308.59375,0.06218120,-0.19960879
12312.5,0.06497072,-0.16661364
12316.40625,0.05971621,-0.14597507
12320.3125,0.06375460,-0.12305754
12324.21875,0.06539499,-0.08263966
12328.125,0.08432939,-0.02382982
12332.03125,0.10527188,0.04020512
12335.9375,0.10867056,0.09704080
12339.84375,0.10318623,0.14657317
12343.75,0.11754572,0.19657880
12347.65625,0.14674440,0.25181887
12351.5625,0.12239083,0.31147388
12355.46875,0.18137500,0.37374884
12359.375,0.13889411,0.43868884
12363.28125,0.18616788,0.50662661
12367.1875,0.18971111,0.57695395
12371.09375,0.20084174,0.65048337
12375.0,0.21280178,0.73006570
12378.90625,0.23576535,0.81596047
12382.8125,0.24087991,0.90221274
12386.71875,0.24896650,0.97792548
12390.625,0.28146192,1.03181255
12394.53125,0.27445975,1.05988252
12398.4375,0.27578869,1.07156873
12402.34375,0.26442617,1.08467996
12406.25,0.28454345,1.11070573
12410.15625,0.29008159,1.14537656
12414.0625,0.29858056,1.17376328
12417.96875,0.29264644,1.18307996
12421.875,0.29050794,1.17055726
12425.78125,0.28253907,1.14192498
12429.6875,0.29516584,1.10576093
12433.59375,0.25933376,1.06890595
12437.5,0.27472562,1.03375578
12441.40625,0.28148541,0.99904656
12445.3125,0.22414583,0.96226895
12449.21875,0.26423451,0.91773188
12453.125,0.24361846,0.85659099
12457.03125,0.23122986,0.77791971
12460.9375,0.20556036,0.69736069
12464.84375,0.19463423,0.63586259
12468.75,0.18074964,0.59815365
12472.65625,0.22196181,0.56635964
12476.5625,0.15737696,0.51629436
12480.46875,0.18398187,0.43771511
12484.375,0.14266235,0.33989400
12488.28125,0.12209165,0.24208564
12492.1875,0.13110957,0.15914820
12496.09375,0.10982875,0.09438914
12500.0,0.09254974,0.04309375
12503.90625,0.08866240,-0.00168195
12507.8125,0.09404042,-0.04563978
12511.71875,0.07368683,-0.09022871
12515.625,0.06261218,-0.13311651
12519.53125,0.06506904,-0.17294475
12523.4375,0.06294837,-0.21051858
12527.34375,0.03573278,-0.24485092
12531.25,0.06283796,-0.27197969
12535.15625,0.02951642,-0.28897586
12539.0625,0.03741468,-0.29871604
12542.96875,0.04784735,-0.31006658
12546.875,0.03890882,-0.32988259
12550.78125,0.02707230,-0.35411730
12554.6875,0.02365629,-0.37118021
12558.59375,0.02702921,-0.37466356
12562.5,0.03934759,-0.36867672
12566.40625,0.02347887,-0.36056852
12570.3125,0.03693192,-0.35348362
12574.21875,0.02021688,-0.34852436
12578.125,0.04639253,-0.35020277
12582.03125,0.02315898,-0.36440909
12585.9375,0.03569762,-0.39077482
12589.84375,0.00467170,-0.42141163
12593.75,0.01858476,-0.44901603
12597.65625,0.02711445,-0.47183299
12601.5625,-0.00376979,-0.48824859
12605.46875,0.01016950,-0.49280483
12609.375,0.00483551,-0.48265159
12613.28125,0.02462490,-0.46412441
12617.1875,0.00738173,-0.44931865
12621.09375,0.01926601,-0.44760340
12625.0,0.01568307,-0.45983317
12628.90625,0.01608906,-0.47733611
12632.8125,-0.00291158,-0.48695377
12636.71875,0.02484570,-0.48089209
12640.625,-0.00587939,-0.46397787
12644.53125,0.03066056,-0.45139357
12648.4375,0.01829452,-0.45665786
12652.34375,0.00651947,-0.47836086
12656.25,0.01473386,-0.49882418
12660.15625,-0.00407030,-0.49838248
12664.0625,0.01029124,-0.47383350
12667.96875,0.01765268,-0.44373730
12671.875,0.04482825,-0.43174624
12675.78125,0.00027544,-0.44254020
12679.6875,0.01568477,-0.45837751
12683.59375,0.00604508,-0.46043381
12687.5,0.02336370,-0.44766238
12691.40625,0.03481780,-0.43253514
12695.3125,0.00499534,-0.42494914
12699.21875,0.02003604,-0.42625365
12703.125,0.03123329,-0.43403718
12707.03125,0.01310633,-0.44432205
12710.9375,0.01527566,-0.45149484
12714.84375,0.01371704,-0.45324576
12718.75,0.01873802,-0.45449468
12722.65625,0.02125900,-0.46171597
12726.5625,0.00955656,-0.47345576
12730.46875,0.01525089,-0.47935408
12734.375,0.00547559,-0.46999463
12738.28125,0.02083407,-0.44769251
12742.1875,0.02035891,-0.42694557
12746.09375,0.03147333,-0.42279965
12750.0,0.01687536,-0.43735340
12753.90625,0.01625912,-0.45785743
12757.8125,0.00137066,-0.46880832
12761.71875,0.02824477,-0.46468410
12765.625,0.02103801,-0.44955963
12769.53125,0.01365943,-0.42847642
12773.4375,0.02432486,-0.40513733
12777.34375,0.03431548,-0.38563383
12781.25,0.02898344,-0.37737814
12785.15625,0.02916389,-0.38298929
12789.0625,0.03342609,-0.39696845
12792.96875,0.01513997,-0.40840808
12796.875,0.02789016,-0.40737000
12800.78125,0.03843576,-0.38938916
12804.6875,0.02159039,-0.35558587
12808.59375,0.04092741,-0.31184042
12812.5,0.06756428,-0.26606649
12816.40625,0.04670462,-0.22108155
12820.3125,0.06393325,-0.17207558
12824.21875,0.07707818,-0.11418178
12828.125,0.09912702,-0.04881165
12832.03125,0.08240063,0.01761353
12835.9375,0.11355384,0.07582241
12839.84375,0.12929264,0.11718658
12843.75,0.11880766,0.14156410
12847.65625,0.10698654,0.15798973
12851.5625,0.13904725,0.17219025
12855.46875,0.12486766,0.17736033
12859.375,0.11985915,0.16001324
12863.28125,0.12426460,0.11225636
12867.1875,0.10573102,0.04012117
12871.09375,0.08722499,-0.03739696
12875.0,0.06187541,-0.10123576
12878.90625,0.09208656,-0.14647862
12882.8125,0.06234598,-0.18167281
12886.71875,0.05175439,-0.21728316
12890.625,0.05407258,-0.25938371
12894.53125,0.05224496,-0.30918798
12898.4375,0.02357973,-0.36198285
12902.34375,0.03109658,-0.40899000
12906.25,0.02030515,-0.44340464
12910.15625,0.01271723,-0.46395490
12914.0625,0.01680773,-0.47392979
12917.96875,0.01596795,-0.47823244
12921.875,0.01936327,-0.47989866
12925.78125,0.00416777,-0.47935998
12929.6875,0.01028322,-0.47833493
12933.59375,0.03010651,-0.48155490
12937.5,0.00272575,-0.49079457
12941.40625,0.01751672,-0.49969581
12945.3125,0.00240667,-0.49985424
12949.21875,0.00820174,-0.49424073
12953.125,0.01023441,-0.50395292
12957.03125,0.00607801,-0.55688787
12960.9375,-0.00947878,-0.66069102
12964.84375,-0.04910445,-0.77839261
12968.75,-0.02825401,-0.82444477
12972.65625,-0.03440639,-0.68282729
12976.5625,0.07127514,-0.24040383
12980.46875,0.17899731,0.56849760
12984.375,0.38066110,1.71390069
12988.28125,0.62802374,3.04191017
12992.1875,0.83649290,4.29588079
12996.09375,1.00769651,5.19088984
13000.0,1.05684650,5.50905561
13003.90625,0.99473447,5.17234039
13007.8125,0.84407634,4.26500320
13011.71875,0.60508996,2.99962187
13015.625,0.36908847,1.63970280
13019.53125,0.16798843,0.41145492
13023.4375,-0.00008441,-0.55330670
13027.34375,-0.11234059,-1.22135818
13031.25,-0.17860509,-1.62271523
13035.15625,-0.20309252,-1.80637598
13039.0625,-0.22192056,-1.81387365
13042.96875,-0.21040568,-1.68196547
13046.875,-0.15220508,-1.46051860
13050.78125,-0.10347865,-1.21532953
13054.6875,-0.06877998,-1.00420809
13058.59375,-0.05372731,-0.84961128
13062.5,-0.03571101,-0.73685843
13066.40625,-0.01911779,-0.63871777
13070.3125,0.01501426,-0.54160106
13074.21875,0.00867310,-0.45249930
13078.125,0.03265200,-0.38794532
13082.03125,0.04545043,-0.35816824
13085.9375,0.03267482,-0.35751939
13089.84375,0.02825157,-0.36819994
13093.75,0.02710938,-0.37478763
13097.65625,0.03207450,-0.37476066
13101.5625,0.05184582,-0.37357709
13105.46875,0.02524194,-0.37244251
13109.375,0.01621099,-0.36760035
13113.28125,0.03974139,-0.36173710
13117.1875,0.05104435,-0.36543688
13121.09375,0.02489962,-0.38141876
13125.0,0.02562662,-0.39464489
13128.90625,0.02368810,-0.38407421
13132.8125,0.04714497,-0.34162846
13136.71875,0.03680143,-0.27858546
13140.625,0.07703897,-0.21642476
13144.53125,0.05118590,-0.17139609
13148.4375,0.08585289,-0.14386785
13152.34375,0.08133766,-0.11866730
13156.25,0.06076837,-0.07705104
13160.15625,0.09561920,-0.01389386
13164.0625,0.12215918,0.05708297
13167.96875,0.12123644,0.11909477
13171.875,0.11642621,0.16967744
13175.78125,0.13035206,0.21809267
13179.6875,0.14446428,0.27073693
13183.59375,0.15638812,0.32479966
13187.5,0.16498783,0.37439129
13191.40625,0.16765974,0.41967797
13195.3125,0.17731830,0.46963376
13199.21875,0.17842112,0.53521156
13203.125,0.21423933,0.61924440
13207.03125,0.22352506,0.71411788
13210.9375,0.22377129,0.80808502
13214.84375,0.26169258,0.89082342
13218.75,0.24906138,0.95505971
13222.65625,0.28292647,0.99889976
13226.5625,0.27042907,1.02910459
13230.46875,0.27460375,1.05933082
13234.375,0.29307094,1.10069942
13238.28125,0.27934617,1.15139055
13242.1875,0.31138220,1.19554651
13246.09375,0.31820258,1.21540499
13250.0,0.29650787,1.20723915
13253.90625,0.30289829,1.18393290
13257.8125,0.28343642,1.16072369
13261.71875,0.29768091,1.14094794
13265.625,0.30160823,1.11737299
13269.53125,0.27582830,1.08490992
13273.4375,0.27868569,1.04800320
13277.34375,0.26943880,1.01481330
13281.25,0.25357297,0.98526013
13285.15625,0.26662767,0.94533288
13289.0625,0.26409841,0.87691993
13292.96875,0.21276303,0.77703923
13296.875,0.22077216,0.66493976
13300.78125,0.17604339,0.56746662
13304.6875,0.18905583,0.49839130
13308.59375,0.18003307,0.45185700
13312.5,0.16189954,0.41223595
13316.40625,0.15488766,0.36599216
13320.3125,0.14592415,0.30592161
13324.21875,0.14838131,0.23319976
13328.125,0.11913701,0.15981194
13332.03125,0.09988350,0.10187840
13335.9375,0.10478864,0.06391443
13339.84375,0.11634362,0.03295460
13343.75,0.07784481,-0.00862979
13347.65625,0.09356342,-0.06772555
13351.5625,0.07380329,-0.13676773
13355.46875,0.04656420,-0.20015138
13359.375,0.05548344,-0.24557842
13363.28125,0.04488772,-0.27294469
13367.1875,0.05430399,-0.29277122
13371.09375,0.02444432,-0.31717300
13375.0,0.04179942,-0.35181686
13378.90625,0.03600299,-0.39078853
13382.8125,0.00404127,-0.41741425
13386.71875,0.02748910,-0.41694689
13390.625,0.01924824,-0.39239848
13394.53125,0.03899194,-0.36478791
13398.4375,0.03140699,-0.35582820
13402.34375,0.03332232,-0.37024692
13406.25,0.02286216,-0.39382416
13410.15625,0.00826216,-0.40842134
13414.0625,0.03414644,-0.40877756
13417.96875,0.02823793,-0.40305364
13421.875,0.01829641,-0.39950407
13425.78125,0.01877005,-0.39914927
13429.6875,0.02881886,-0.40070426
13433.59375,0.02733824,-0.40461987
13437.5,0.01643716,-0.41060233
13441.40625,0.01288289,-0.41700915
13445.3125,0.03000229,-0.42402032
13449.21875,0.01745248,-0.43309304
13453.125,0.01039562,-0.44307810
13457.03125,0.01639787,-0.45033082
13460.9375,0.01141105,-0.45229095
13464.84375,0.01943569,-0.44902983
13468.75,0.01073763,-0.44278845
13472.65625,0.01544306,-0.43778959
13476.5625,0.02188392,-0.43873513
13480.46875,0.01077062,-0.44708318
13484.375,0.00850824,-0.45933768
13488.28125,0.01796254,-0.46962580
13492.1875,0.00413712,-0.47296828
13496.09375,0.01155203,-0.46727738
13500.0,0.01140350,-0.45459601
13503.90625,0.01702339,-0.43996266
13507.8125,0.01723002,-0.42815921
13511.71875,0.01257540,-0.42189169
13515.625,0.03245290,-0.42155331
13519.53125,0.00320768,-0.42512026
13523.4375,0.01160653,-0.43042797
13527.34375,0.03059822,-0.43776995
13531.25,0.00953866,-0.44629368
13535.15625,0.01277388,-0.44955161
13539.0625,0.00282975,-0.44171420
13542.96875,0.01660343,-0.42865151
13546.875,0.03082775,-0.42603683
13550.78125,0.01127646,-0.44264340
13554.6875,0.00326086,-0.46870095
13558.59375,0.01124720,-0.48409370
13562.5,-0.00507624,-0.47797725
13566.40625,0.00371907,-0.46066439
13570.3125,0.04145678,-0.45450950
13574.21875,-0.00356701,-0.46961692
13578.125,-0.00438494,-0.49161699
13582.03125,0.00956004,-0.49672261
13585.9375,0.00007733,-0.47471374
13589.84375,0.00981233,-0.43664360
13593.75,0.03605821,-0.40416777
13597.65625,0.02480887,-0.39013833
13601.5625,0.00081287,-0.38914442
13605.46875,0.02570643,-0.38964760
13609.375,0.02503130,-0.39036688
13613.28125,0.02821921,-0.39765450
13617.1875,0.00886140,-0.41053188
13621.09375,0.01981890,-0.41616389
13625.0,0.01320635,-0.40124437
13628.90625,0.02638482,-0.36590093
13632.8125,0.02736184,-0.32624137
13636.71875,0.04423014,-0.30190733
13640.625,0.04153876,-0.29726249
13644.53125,0.03810647,-0.29347986
13648.4375,0.02082076,-0.26312366
13652.34375,0.06208694,-0.19586273
13656.25,0.07381763,-0.10817640
13660.15625,0.08723429,-0.02762323
13664.0625,0.08640838,0.02818457
13667.96875,0.09593829,0.05761589
13671.875,0.10018284,0.06823149
13675.78125,0.10336572,0.06914625
13679.6875,0.08890212,0.06681953
13683.59375,0.10213999,0.06329729
13687.5,0.10432415,0.05778997
13691.40625,0.08465282,0.04935512
