rel_ms,value_mv,normalized
0.0,0.05609727,0.12384790
3.90625,0.04016060,0.12514353
7.8125,0.01717285,0.11984532
11.71875,0.03569862,0.12554972
15.625,0.04731548,0.14751686
19.53125,0.04409568,0.17322733
23.4375,0.03938116,0.18244116
27.34375,0.04673335,0.16045202
31.25,0.04151357,0.10825032
35.15625,0.00881355,0.04425186
39.0625,0.02371435,-0.00717116
42.96875,0.00244246,-0.03271084
46.875,0.00632690,-0.03961473
50.78125,0.01026623,-0.05188854
54.6875,0.00893104,-0.09348180
58.59375,-0.01298892,-0.16833317
62.5,-0.03551921,-0.25682011
66.40625,-0.04121030,-0.33378738
70.3125,-0.03739163,-0.38684407
74.21875,-0.06147235,-0.41663775
78.125,-0.05510132,-0.42804569
82.03125,-0.05038490,-0.42702496
85.9375,-0.04853335,-0.42072091
89.84375,-0.06350244,-0.41495275
93.75,-0.05431188,-0.41223684
97.65625,-0.03964409,-0.41139933
101.5625,-0.04805970,-0.40622950
105.46875,-0.06662609,-0.38777426
109.375,-0.03648083,-0.35258013
113.28125,-0.02795126,-0.30557498
117.1875,-0.02704345,-0.25179726
121.09375,-0.01182727,-0.18980296
125.0,-0.02001065,-0.11679167
128.90625,0.02284281,-0.03716860
132.8125,0.02299801,0.03739449
136.71875,0.02106481,0.09454932
140.625,0.03940679,0.12616463
144.53125,0.04627317,0.13285910
148.4375,0.04133003,0.12973778
152.34375,0.02543545,0.14130853
156.25,0.02762367,0.18095241
160.15625,0.08892092,0.23747115
164.0625,0.05256506,0.28746849
167.96875,0.06227008,0.31548312
171.875,0.07098523,0.31760290
175.78125,0.05671317,0.29510605
179.6875,0.07101268,0.25287086
183.59375,0.03987633,0.20036039
187.5,0.05164117,0.14924131
191.40625,0.01275480,0.10828678
195.3125,0.03880107,0.07856410
199.21875,0.03063924,0.05328984
203.125,0.01892108,0.02409895
207.03125,0.01044942,-0.01264425
210.9375,0.00276328,-0.05583449
214.84375,0.00319455,-0.10309444
218.75,-0.00161569,-0.15195625
222.65625,-0.02963565,-0.19871464
226.5625,-0.00980825,-0.23812228
230.46875,-0.03706655,-0.26486409
234.375,-0.02590100,-0.27671355
238.28125,-0.03208806,-0.27761847
242.1875,-0.02351425,-0.27577567
246.09375,-0.03261285,-0.27649820
250.0,-0.02234315,-0.27699435
253.90625,-0.03086437,-0.26806870
257.8125,-0.03401757,-0.24202114
261.71875,-0.00671300,-0.20146313
265.625,-0.00943153,-0.16049911
269.53125,-0.00681039,-0.13518044
273.4375,0.00179702,-0.13084102
277.34375,-0.01924178,-0.13746172
281.25,0.00737041,-0.13812600
285.15625,-0.01366434,-0.12354873
289.0625,0.00584917,-0.09878357
292.96875,0.00102780,-0.07649133
296.875,0.00795926,-0.06491708
300.78125,0.01424916,-0.06170595
304.6875,0.00702848,-0.05680544
308.59375,-0.00360787,-0.04152897
312.5,0.01911984,-0.01804771
316.40625,0.02256009,-0.00027321
320.3125,0.01716823,-0.00250682
324.21875,0.02203165,-0.02579200
328.125,-0.01070255,-0.05610700
332.03125,0.01247589,-0.07655668
335.9375,0.01174683,-0.08006416
339.84375,-0.00844202,-0.07056429
343.75,0.01860589,-0.05574460
347.65625,0.02002306,-0.03873368
351.5625,0.00494143,-0.01453926
355.46875,0.01626291,0.02260938
359.375,0.03089161,0.06722791
363.28125,0.04071687,0.10276664
367.1875,0.04558006,0.11637498
371.09375,0.02725169,0.11154485
375.0,0.03070633,0.10513102
378.90625,0.04021599,0.11326862
382.8125,0.04773025,0.14032905
386.71875,0.04273872,0.17746761
390.625,0.04779268,0.20759690
394.53125,0.05812109,0.21414898
398.4375,0.05631152,0.19196843
402.34375,0.04719827,0.15299100
406.25,0.02823619,0.11862897
410.15625,0.03141118,0.10226364
414.0625,0.03849299,0.09679824
417.96875,0.03575255,0.07906158
421.875,0.03093797,0.02748263
425.78125,-0.00219461,-0.06188145
429.6875,-0.00302165,-0.17214373
433.59375,-0.02008270,-0.27413288
437.5,-0.04886668,-0.34062845
441.40625,-0.03434202,-0.36164796
445.3125,-0.04958812,-0.35210165
449.21875,-0.01791732,-0.34160286
453.125,-0.03426008,-0.35024095
457.03125,-0.05177349,-0.37221867
460.9375,-0.04606476,-0.38543719
464.84375,-0.04323863,-0.37622070
468.75,-0.02703862,-0.35077456
472.65625,-0.03699909,-0.32346091
476.5625,-0.02475021,-0.29967189
480.46875,-0.03249376,-0.27349898
484.375,-0.01658409,-0.23953220
488.28125,-0.00756132,-0.20092215
492.1875,-0.00533649,-0.16325599
496.09375,-0.00693222,-0.12526104
500.0,0.01559510,-0.08067633
503.90625,0.00783282,-0.02709996
507.8125,0.03984337,0.03189334
511.71875,0.02935030,0.09231793
515.625,0.03392074,0.15123500
519.53125,0.07341769,0.20188934
523.4375,0.05362672,0.23521121
527.34375,0.06711071,0.24995604
531.25,0.05765989,0.25655141
535.15625,0.06585281,0.26797509
539.0625,0.07247590,0.28816468
542.96875,0.06542072,0.30929485
546.875,0.09112753,0.31932753
550.78125,0.06548535,0.31182653
554.6875,0.05541385,0.28736812
558.59375,0.07890847,0.24822313
562.5,0.06798852,0.19908513
566.40625,0.02466564,0.15035762
570.3125,0.03814943,0.10896376
574.21875,0.04889113,0.06728517
578.125,0.01949010,0.01163151
582.03125,0.01716968,-0.05935213
585.9375,0.00968060,-0.12964091
589.84375,-0.02202264,-0.17752692
593.75,-0.01241949,-0.19348989
597.65625,0.00142361,-0.18963099
601.5625,0.00447682,-0.18913098
605.46875,-0.01791839,-0.20531403
609.375,-0.02131215,-0.23369654
613.28125,-0.01532844,-0.26193297
617.1875,-0.02087048,-0.28119907
621.09375,-0.01666133,-0.28833854
625.0,-0.03225178,-0.28381062
628.90625,-0.01965607,-0.27128923
632.8125,-0.01136322,-0.25585929
636.71875,-0.00721745,-0.23872900
640.625,-0.02962606,-0.21682698
644.53125,0.00259593,-0.19153209
648.4375,-0.00209760,-0.17315623
652.34375,0.00211780,-0.17134595
656.25,-0.01741756,-0.18383084
660.15625,0.00760480,-0.19691113
664.0625,-0.00885779,-0.19420215
667.96875,-0.01758698,-0.16715568
671.875,0.01601901,-0.12271990
675.78125,0.01659194,-0.07866058
679.6875,0.01870936,-0.04746547
683.59375,0.02116310,-0.02698239
687.5,0.01980143,-0.00700324
691.40625,0.03355768,0.01937486
695.3125,0.03052425,0.05086185
699.21875,0.04074176,0.07926577
703.125,0.05206050,0.09402019
707.03125,0.03169597,0.08834270
710.9375,0.03293325,0.06306772
714.84375,0.04733189,0.02679854
718.75,0.01560210,-0.00567995
722.65625,0.02406128,-0.01908947
726.5625,0.03326165,-0.00712367
730.46875,0.01404245,0.02262906
734.375,0.04708721,0.05371462
738.28125,0.05734443,0.07417763
742.1875,0.02617750,0.08726012
746.09375,0.03421547,0.10367452
750.0,0.05707222,0.12302210
753.90625,0.06403945,0.13202040
757.8125,0.02838254,0.12053304
761.71875,0.05371821,0.08995471
765.625,0.04167309,0.04792259
769.53125,0.01641520,0.00195150
773.4375,0.02501169,-0.04548230
777.34375,0.01154655,-0.10069373
781.25,0.00478978,-0.17477176
785.15625,-0.01338790,-0.27215207
789.0625,-0.03553061,-0.38193324
792.96875,-0.05080447,-0.47967306
796.875,-0.06301893,-0.53802824
800.78125,-0.05730931,-0.53634638
804.6875,-0.03949967,-0.45888093
808.59375,-0.00771962,-0.28317147
812.5,0.02454593,0.02387295
816.40625,0.10312223,0.48638514
820.3125,0.20105925,1.08741403
824.21875,0.33343691,1.75678539
828.125,0.42796376,2.39508963
832.03125,0.50323611,2.91192317
835.9375,0.55951744,3.24575949
839.84375,0.58301538,3.36094832
843.75,0.57365668,3.24186158
847.65625,0.49742889,2.89545131
851.5625,0.41585052,2.35524511
855.46875,0.31810558,1.68028164
859.375,0.17966792,0.94942456
863.28125,0.08132856,0.24898969
867.1875,-0.04193646,-0.34711030
871.09375,-0.09191928,-0.79521668
875.0,-0.14153340,-1.08629191
878.90625,-0.18278435,-1.23728883
882.8125,-0.16303350,-1.27822018
886.71875,-0.17287086,-1.23950553
890.625,-0.16376458,-1.14382386
894.53125,-0.13497710,-1.00801158
898.4375,-0.09236274,-0.84872401
902.34375,-0.09151687,-0.68148929
906.25,-0.04531906,-0.51700628
910.15625,-0.03296086,-0.36184123
914.0625,0.00377135,-0.22052836
917.96875,0.01337531,-0.09591478
921.875,0.03344932,0.00963618
925.78125,0.05401163,0.09199371
929.6875,0.05209414,0.14568719
933.59375,0.06141158,0.16753505
937.5,0.06333401,0.16044793
941.40625,0.05744193,0.13487487
945.3125,0.05084854,0.10555582
949.21875,0.04269072,0.08327812
953.125,0.04281596,0.06690708
957.03125,0.04197699,0.04317079
960.9375,0.04173769,-0.00266577
964.84375,0.03296722,-0.07120889
968.75,-0.00748417,-0.14371762
972.65625,0.00116547,-0.19739743
976.5625,-0.00246968,-0.22769307
980.46875,0.00122563,-0.25199288
984.375,-0.00456547,-0.29010335
988.28125,-0.03736359,-0.34375703
992.1875,-0.01859808,-0.39558399
996.09375,-0.04305255,-0.42421117
1000.0,-0.02779456,-0.41913185
1003.90625,-0.03184155,-0.38607168
1007.8125,-0.02584443,-0.34262350
1011.71875,0.00340709,-0.30637166
1015.625,-0.01861088,-0.28233978
1019.53125,-0.01422552,-0.26244083
1023.4375,-0.00263574,-0.23896450
1027.34375,0.01293649,-0.21475106
1031.25,-0.01620871,-0.19794190
1035.15625,0.02767307,-0.18976134
1039.0625,0.00265018,-0.17820281
1042.96875,0.00316807,-0.14563158
1046.875,0.01947803,-0.08869446
1050.78125,0.02840364,-0.03006349
1054.6875,0.05473000,-0.00258824
1058.59375,0.03447508,-0.01866731
1062.5,0.01765072,-0.05823021
1066.40625,0.02302158,-0.08763566
1070.3125,0.01446859,-0.08776990
1074.21875,0.03412402,-0.06529886
1078.125,0.03641471,-0.04275235
1082.03125,0.02271157,-0.04001353
1085.9375,0.04066327,-0.06099472
1089.84375,0.00733986,-0.09279757
1093.75,0.02265095,-0.11700742
1097.65625,0.01838651,-0.12325957
1101.5625,0.02380868,-0.11233338
1105.46875,0.01297707,-0.08898293
1109.375,0.04610044,-0.05524844
1113.28125,0.02545676,-0.01056987
1117.1875,0.03774143,0.04107937
1121.09375,0.05605365,0.08411974
1125.0,0.06364271,0.09809919
1128.90625,0.06084394,0.07749618
1132.8125,0.02188920,0.04087889
1136.71875,0.04666002,0.01502002
1140.625,0.04715813,0.01268612
1144.53125,0.04356105,0.02791212
1148.4375,0.04198774,0.04560646
1152.34375,0.04355807,0.05048514
1156.25,0.05514440,0.03298892
1160.15625,0.03948699,-0.00526989
1164.0625,0.02489671,-0.05181327
1167.96875,0.01724752,-0.09261507
1171.875,0.03229011,-0.12167422
1175.78125,0.00350125,-0.14238350
1179.6875,0.02571786,-0.16319686
1183.59375,0.00401934,-0.19202572
1187.5,-0.00360706,-0.23165075
1191.40625,-0.00229016,-0.27978396
1195.3125,-0.01666945,-0.33235449
1199.21875,-0.01066672,-0.38377056
1203.125,-0.04085448,-0.42635369
1207.03125,-0.05258068,-0.45655549
1210.9375,-0.01143058,-0.48029250
1214.84375,-0.03609982,-0.50251174
1218.75,-0.07094974,-0.51332879
1222.65625,-0.01980494,-0.49609554
1226.5625,-0.05612191,-0.44961941
1230.46875,-0.01173339,-0.39528224
1234.375,-0.01050521,-0.35947204
1238.28125,-0.01629494,-0.34842917
1242.1875,-0.02013288,-0.34226498
1246.09375,-0.02286316,-0.31620345
1250.0,0.00783947,-0.26506674
1253.90625,0.00090752,-0.20476013
1257.8125,0.02860503,-0.15355454
1261.71875,0.02210320,-0.11505763
1265.625,0.01632004,-0.07792813
1269.53125,0.03631998,-0.02951935
1273.4375,0.05433987,0.03232709
1277.34375,0.05562043,0.09990823
1281.25,0.07008798,0.16241392
1285.15625,0.06284085,0.20959263
1289.0625,0.09759618,0.23453379
1292.96875,0.07443809,0.23956174
1296.875,0.08807947,0.23806413
1300.78125,0.06106706,0.24332370
1304.6875,0.08911548,0.25259686
1308.59375,0.09416756,0.24719676
1312.5,0.07781649,0.21257310
1316.40625,0.06143354,0.15455014
1320.3125,0.04599079,0.09132821
1324.21875,0.05649889,0.03368377
1328.125,0.04762004,-0.02058113
1332.03125,0.01603613,-0.07588451
1335.9375,0.02298887,-0.13083024
1339.84375,0.02054433,-0.18059118
1343.75,-0.00378081,-0.22194207
1347.65625,0.00516364,-0.25630867
1351.5625,-0.01239740,-0.28967264
1355.46875,0.00233280,-0.32782105
1359.375,-0.03546812,-0.37178364
1363.28125,-0.01766573,-0.41855940
1367.1875,-0.02518213,-0.46198061
1371.09375,-0.05067766,-0.49109173
1375.0,-0.03957504,-0.49498078
1378.90625,-0.03788627,-0.47343850
1382.8125,-0.01456525,-0.43719050
1386.71875,-0.02746560,-0.39508128
1390.625,-0.01988062,-0.34742308
1394.53125,-0.01406467,-0.29505342
1398.4375,0.01956068,-0.24832791
1402.34375,-0.00987831,-0.22187939
1406.25,0.02092319,-0.22275968
1410.15625,-0.00012478,-0.24440779
1414.0625,-0.01258370,-0.26970357
1417.96875,0.00056008,-0.28113949
1421.875,-0.00103986,-0.27030033
1425.78125,0.01254492,-0.23823951
1429.6875,0.00194056,-0.19043732
1433.59375,0.01058146,-0.13560794
1437.5,0.04615813,-0.08663961
1441.40625,0.02708760,-0.05641051
1445.3125,0.02890718,-0.05137685
1449.21875,0.04713576,-0.06904565
1453.125,0.00547677,-0.09879702
1457.03125,0.03218339,-0.12629065
1460.9375,0.01965591,-0.14012274
1464.84375,0.02497323,-0.13429984
1468.75,0.01730878,-0.10787693
1472.65625,0.02734055,-0.06830555
1476.5625,0.04141914,-0.03380265
1480.46875,0.04197733,-0.02507721
1484.375,0.03168874,-0.04957279
1488.28125,0.04009781,-0.09151864
1492.1875,0.01756686,-0.11792788
1496.09375,-0.00137964,-0.10213746
1500.0,0.04833446,-0.04900055
1503.90625,0.06220438,0.00749329
1507.8125,0.04516824,0.03630352
1511.71875,0.03366247,0.03340878
1515.625,0.04280343,0.01429281
1519.53125,0.05755002,-0.00482680
1523.4375,0.02879068,-0.01443745
1527.34375,0.04298621,-0.01155875
1531.25,0.04792987,0.00045537
1535.15625,0.02571890,0.01294418
1539.0625,0.05986112,0.01368220
1542.96875,0.04010275,-0.00824803
1546.875,0.04491225,-0.05247190
1550.78125,0.00553536,-0.10427786
1554.6875,0.01369710,-0.14954294
1558.59375,0.02105958,-0.19281805
1562.5,-0.00147109,-0.25422317
1566.40625,-0.00226613,-0.34696189
1570.3125,-0.05129095,-0.46144477
1574.21875,-0.04258929,-0.57259911
1578.125,-0.07875406,-0.66098726
1582.03125,-0.07423906,-0.72660822
1585.9375,-0.07773921,-0.78305149
1589.84375,-0.09396818,-0.83814293
1593.75,-0.11585101,-0.88102520
1597.65625,-0.09963949,-0.88751650
1601.5625,-0.08952355,-0.83334279
1605.46875,-0.08119472,-0.70147598
1609.375,-0.03811057,-0.48307642
1613.28125,0.01564016,-0.17375897
1617.1875,0.08605123,0.23383994
1621.09375,0.15583253,0.75111014
1625.0,0.27228513,1.38049388
1628.90625,0.37728441,2.09938002
1632.8125,0.50817007,2.85723877
1636.71875,0.64251518,3.58840919
1640.625,0.73467183,4.22975016
1644.53125,0.81286120,4.73006630
1648.4375,0.86143410,5.04803419
1652.34375,0.88794786,5.14960289
1656.25,0.87591928,5.01595163
1660.15625,0.80686563,4.65678358
1664.0625,0.70295185,4.11254501
1667.96875,0.60455698,3.44022274
1671.875,0.48485395,2.69718766
1675.78125,0.36831856,1.93682945
1679.6875,0.22683087,1.21072364
1683.59375,0.13978852,0.56542861
1687.5,0.04112394,0.03374622
1691.40625,-0.02885259,-0.37231284
1695.3125,-0.05808939,-0.66178250
1699.21875,-0.10178337,-0.85680938
1703.125,-0.12948601,-0.98211950
1707.03125,-0.12572961,-1.05904043
1710.9375,-0.14393078,-1.10258007
1714.84375,-0.15492457,-1.11953199
1718.75,-0.12815298,-1.11061692
1722.65625,-0.14272414,-1.07558167
1726.5625,-0.13341084,-1.01798892
1730.46875,-0.11889680,-0.94850701
1734.375,-0.10669496,-0.88272691
1738.28125,-0.08518999,-0.83163339
1742.1875,-0.09178197,-0.79296511
1746.09375,-0.10130396,-0.75449502
1750.0,-0.07861923,-0.70763236
1753.90625,-0.06068445,-0.65542191
1757.8125,-0.05878815,-0.60562575
1761.71875,-0.05186779,-0.55985874
1765.625,-0.05825764,-0.51331252
1769.53125,-0.04163931,-0.46394742
1773.4375,-0.02349407,-0.41776723
1777.34375,-0.01692293,-0.38190666
1781.25,-0.02793476,-0.35434997
1785.15625,-0.02077260,-0.32551771
1789.0625,-0.01821004,-0.29075822
1792.96875,0.00969754,-0.25647601
1796.875,-0.00593540,-0.23126361
1800.78125,0.00378287,-0.21445799
1804.6875,0.00057529,-0.19699645
1808.59375,0.00232946,-0.17223988
1812.5,0.01386607,-0.14293952
1816.40625,0.02779907,-0.11637141
1820.3125,0.01120376,-0.09434150
1824.21875,0.03275539,-0.07098567
1828.125,0.01826441,-0.04083143
1832.03125,0.02754623,-0.00807213
1835.9375,0.04837279,0.01278445
1839.84375,0.04552185,0.00798137
1843.75,0.02145470,-0.02277183
1847.65625,0.01872596,-0.06668401
1851.5625,0.01593208,-0.10906209
1855.46875,0.02646266,-0.13998273
1859.375,-0.00406776,-0.15360686
1863.28125,0.01065772,-0.14895846
1867.1875,0.01845912,-0.13144867
1871.09375,0.01213729,-0.10924375
1875.0,0.01075305,-0.08942182
1878.90625,0.03970597,-0.07789920
1882.8125,0.00809254,-0.07712205
1886.71875,0.02176690,-0.08219130
1890.625,0.02107708,-0.08273145
1894.53125,0.02317186,-0.06961831
1898.4375,0.01651621,-0.04212427
1902.34375,0.03792997,-0.01234057
1906.25,0.02643874,-0.00039149
1910.15625,0.04703650,-0.01883316
1914.0625,0.00728174,-0.05949202
1917.96875,0.02184907,-0.09896958
1921.875,0.00094747,-0.12038652
1925.78125,0.01425120,-0.12930350
1929.6875,0.02000939,-0.14657152
1933.59375,-0.01374689,-0.18645243
1937.5,0.00534413,-0.24347593
1941.40625,-0.02307924,-0.29852083
1945.3125,-0.03388169,-0.33538085
1949.21875,-0.02296499,-0.35365322
1953.125,-0.02436597,-0.36763516
1957.03125,-0.03765128,-0.39353478
1960.9375,-0.04072635,-0.43856341
1964.84375,-0.04919031,-0.49789402
1968.75,-0.05814940,-0.55554062
1972.65625,-0.07990647,-0.59026074
1976.5625,-0.05927371,-0.58807808
1980.46875,-0.06265591,-0.55140513
1984.375,-0.04555152,-0.49562061
1988.28125,-0.05862853,-0.43902889
1992.1875,-0.01971835,-0.39454830
1996.09375,-0.03037529,-0.36324495
2000.0,-0.03568443,-0.33326989
2003.90625,-0.01460673,-0.29039910
2007.8125,-0.01658048,-0.23171802
2011.71875,0.01124110,-0.16704945
2015.625,0.00036884,-0.10828161
2019.53125,0.03233211,-0.05962704
2023.4375,0.01167212,-0.01735019
2027.34375,0.03460061,0.02335252
2031.25,0.04060874,0.06297643
2035.15625,0.03766966,0.09861504
2039.0625,0.05043080,0.12727670
2042.96875,0.05892132,0.14832017
2046.875,0.04747977,0.16549411
2050.78125,0.05290966,0.18550572
2054.6875,0.06878269,0.21129291
2058.59375,0.05187730,0.23591459
2062.5,0.07672148,0.24422519
2066.40625,0.07185911,0.22404458
2070.3125,0.04108775,0.17751172
2074.21875,0.04375014,0.11815718
2078.125,0.03767470,0.05703248
2082.03125,0.03105436,-0.00336788
2085.9375,0.00668194,-0.06344482
2089.84375,0.01253943,-0.12151144
2093.75,-0.01219294,-0.17544425
2097.65625,-0.01607885,-0.22656760
2101.5625,-0.00848512,-0.27955130
2105.46875,-0.03220733,-0.33658144
2109.375,-0.04960624,-0.39335337
2113.28125,-0.05064994,-0.44318870
2117.1875,-0.04444520,-0.48145857
2121.09375,-0.06070665,-0.50339800
2125.0,-0.06518546,-0.50361800
2128.90625,-0.05238320,-0.48311645
2132.8125,-0.06495471,-0.45405871
2136.71875,-0.02669208,-0.43282506
2140.625,-0.05717554,-0.42609060
2144.53125,-0.03721450,-0.42373660
2148.4375,-0.05868077,-0.40715024
2152.34375,-0.04021431,-0.36653554
2156.25,-0.02104537,-0.31072634
2160.15625,-0.01898083,-0.25939190
2164.0625,-0.01222840,-0.22604659
2167.96875,-0.02151119,-0.20953031
2171.875,-0.00727323,-0.19951408
2175.78125,-0.00737589,-0.18626748
2179.6875,-0.01783422,-0.16558871
2183.59375,0.01629405,-0.13775499
2187.5,-0.00271868,-0.10334098
2191.40625,0.00484029,-0.06219323
2195.3125,0.01953885,-0.01857884
2199.21875,0.01815717,0.01604806
2203.125,0.04191517,0.03015738
2207.03125,0.00995665,0.02193063
2210.9375,0.02786826,0.00060701
2214.84375,0.00878864,-0.02091213
2218.75,0.00981693,-0.03492348
2222.65625,0.02174134,-0.04261659
2226.5625,0.01619119,-0.04901664
2230.46875,0.00173913,-0.05446019
2234.375,0.00650639,-0.05451395
2238.28125,0.00968917,-0.04831920
2242.1875,0.02806829,-0.04146003
2246.09375,-0.00083897,-0.03882141
2250.0,0.01179838,-0.03907691
2253.90625,0.01728375,-0.03744400
2257.8125,0.01267255,-0.03067632
2261.71875,0.00596489,-0.02055203
2265.625,0.02301715,-0.01579932
2269.53125,0.00260241,-0.02755583
2273.4375,0.03745025,-0.05661601
2277.34375,-0.01731271,-0.08522727
2281.25,-0.00966235,-0.08982094
2285.15625,0.01450660,-0.06655326
2289.0625,0.01848612,-0.03828216
2292.96875,0.01382561,-0.03285262
2296.875,-0.00205073,-0.05954161
2300.78125,-0.00073437,-0.10705309
2304.6875,-0.00334846,-0.15679269
2308.59375,-0.01949317,-0.19486794
2312.5,-0.01918363,-0.21745288
2316.40625,-0.03218693,-0.23168629
2320.3125,-0.01320547,-0.25142291
2324.21875,-0.02852756,-0.28708372
2328.125,-0.04501558,-0.33682483
2332.03125,-0.05022974,-0.38843426
2335.9375,-0.05660483,-0.42987368
2339.84375,-0.05965121,-0.45730758
2343.75,-0.05661979,-0.47439519
2347.65625,-0.06751629,-0.48657373
2351.5625,-0.07251257,-0.49846920
2355.46875,-0.06575467,-0.51689667
2359.375,-0.07856676,-0.55313689
2363.28125,-0.08711047,-0.61973065
2367.1875,-0.10271238,-0.72450942
2371.09375,-0.12843946,-0.86569071
2375.0,-0.16541678,-1.02793133
2378.90625,-0.17632060,-1.17361045
2382.8125,-0.16313255,-1.22355938
2386.71875,-0.15634546,-1.04131341
2390.625,-0.06619012,-0.45698917
2394.53125,0.10724268,0.65175468
2398.4375,0.35985205,2.25599146
2402.34375,0.68833113,4.11505461
2406.25,0.96226126,5.81200838
2410.15625,1.17246246,6.89092159
2414.0625,1.19329345,7.04221058
2417.96875,1.04430330,6.24002600
2421.875,0.77893686,4.74831438
2425.78125,0.48028687,2.99029160
2429.6875,0.22518770,1.36514986
2433.59375,0.04505967,0.11825909
2437.5,-0.11587199,-0.68712842
2441.40625,-0.15870158,-1.12044585
2445.3125,-0.18604083,-1.30468512
2449.21875,-0.22057177,-1.34779811
2453.125,-0.20782962,-1.31237030
2457.03125,-0.17855577,-1.22368753
2460.9375,-0.18381977,-1.09155130
2464.84375,-0.13069107,-0.92782533
2468.75,-0.12110073,-0.75541043
2472.65625,-0.08413740,-0.60559738
2476.5625,-0.06783901,-0.50427794
2480.46875,-0.06096291,-0.45705697
2484.375,-0.07253571,-0.44770354
2488.28125,-0.06009582,-0.45337364
2492.1875,-0.06937128,-0.46124986
2496.09375,-0.06022764,-0.47039735
2500.0,-0.07024089,-0.48192963
2503.90625,-0.07689196,-0.49204615
2507.8125,-0.05546270,-0.49313504
2511.71875,-0.08018243,-0.47786477
2515.625,-0.06931036,-0.44446984
2519.53125,-0.04684676,-0.40159112
2523.4375,-0.05130049,-0.36470526
2527.34375,-0.04025639,-0.34415054
2531.25,-0.05721280,-0.33752760
2535.15625,-0.03733707,-0.33318096
2539.0625,-0.04401727,-0.31861615
2542.96875,-0.04875773,-0.28742307
2546.875,-0.01475955,-0.24206024
2550.78125,-0.02875113,-0.19028962
2554.6875,-0.01012932,-0.13930172
2558.59375,-0.01858525,-0.09587490
2562.5,0.00314542,-0.06994674
2566.40625,0.00639427,-0.07050603
2570.3125,-0.01041262,-0.09436068
2574.21875,-0.00886086,-0.12230049
2578.125,-0.02759933,-0.13088520
2582.03125,-0.00096713,-0.10989249
2585.9375,0.00172973,-0.06927377
2589.84375,-0.00478366,-0.03150195
2593.75,0.01168665,-0.01756080
2597.65625,0.00135126,-0.03425439
2601.5625,0.00138468,-0.06817260
2605.46875,-0.00714811,-0.09285880
2609.375,-0.01860487,-0.08839230
2613.28125,-0.00044123,-0.05866795
2617.1875,0.00859544,-0.02883196
2621.09375,0.01284985,-0.02260691
2625.0,0.00047570,-0.04149877
2628.90625,-0.01646079,-0.06736150
2632.8125,-0.00483538,-0.08332723
2636.71875,0.00168315,-0.08786325
2640.625,-0.01274838,-0.08919888
2644.53125,-0.00337283,-0.09242295
2648.4375,-0.00615810,-0.09397472
2652.34375,-0.00794009,-0.08528508
2656.25,-0.01070008,-0.06188086
2660.15625,0.00473022,-0.03171123
2664.0625,0.00631112,-0.01342545
2667.96875,0.01278178,-0.02289146
2671.875,-0.00763400,-0.05941514
2675.78125,-0.00682143,-0.10510144
2679.6875,-0.03216352,-0.13943359
2683.59375,-0.01240787,-0.15648587
2687.5,-0.00432594,-0.16726288
2691.40625,-0.03553778,-0.18551181
2695.3125,-0.02592853,-0.21581450
2699.21875,-0.04406507,-0.25640365
2703.125,-0.03744021,-0.30647072
2707.03125,-0.04067602,-0.36433983
2710.9375,-0.07215517,-0.42014414
2714.84375,-0.07035009,-0.45741639
2718.75,-0.07256418,-0.46636117
2722.65625,-0.06920451,-0.45431784
2726.5625,-0.05310650,-0.44050658
2730.46875,-0.06926843,-0.43900436
2734.375,-0.06781831,-0.44630256
2738.28125,-0.06548769,-0.44532719
2742.1875,-0.07262448,-0.42186004
2746.09375,-0.04751256,-0.37844962
2750.0,-0.04880634,-0.33291242
2753.90625,-0.03893227,-0.30186385
2757.8125,-0.03765811,-0.28460714
2761.71875,-0.04884766,-0.26302189
2765.625,-0.01692279,-0.21679129
2769.53125,-0.02160668,-0.13947830
2773.4375,-0.01555356,-0.04420579
2777.34375,0.03705346,0.04432011
2781.25,0.02461998,0.10848980
2785.15625,0.01675789,0.15017366
2789.0625,0.03902998,0.18168688
2792.96875,0.04853645,0.20992957
2796.875,0.04283837,0.23470423
2800.78125,0.03874886,0.25427827
2804.6875,0.05727819,0.26512071
2808.59375,0.05485134,0.26250419
2812.5,0.05260973,0.24734609
2816.40625,0.02113633,0.22623001
2820.3125,0.04176293,0.19891505
2824.21875,0.05454824,0.15295875
2828.125,0.00749127,0.07774987
2832.03125,0.00323497,-0.02231904
2835.9375,-0.01843889,-0.13492937
2839.84375,-0.03818311,-0.25702211
2843.75,-0.06422572,-0.40279528
2847.65625,-0.07494858,-0.59374893
2851.5625,-0.14316261,-0.83355051
2855.46875,-0.15624993,-1.08228564
2859.375,-0.20747332,-1.24736452
2863.28125,-0.17732927,-1.19853997
2867.1875,-0.12552494,-0.80562729
2871.09375,-0.00667674,0.00598949
2875.0,0.18917526,1.19598985
2878.90625,0.43034980,2.57735491
2882.8125,0.63863933,3.84598279
2886.71875,0.79023218,4.67489767
2890.625,0.81222147,4.83562803
2894.53125,0.71812373,4.28872108
2898.4375,0.52538908,3.19611287
2902.34375,0.30423480,1.84853864
2906.25,0.08535413,0.54845756
2910.15625,-0.07955217,-0.49080688
2914.0625,-0.18384610,-1.18669665
2917.96875,-0.24498588,-1.56513286
2921.875,-0.25984892,-1.70367968
2925.78125,-0.27872148,-1.68048072
2929.6875,-0.24456930,-1.55257797
2933.59375,-0.22140911,-1.35884392
2937.5,-0.17198350,-1.12916028
2941.40625,-0.14462882,-0.88955504
2945.3125,-0.09562599,-0.66325539
2949.21875,-0.06973402,-0.46859050
2953.125,-0.04584669,-0.31565964
2957.03125,-0.03194347,-0.20649606
2960.9375,-0.00922076,-0.13874440
2964.84375,-0.00561281,-0.10643406
2968.75,-0.00990842,-0.09675450
2972.65625,-0.00647402,-0.09140492
2976.5625,-0.02367228,-0.07781800
2980.46875,0.01318189,-0.05986748
2984.375,0.01194676,-0.05147987
2988.28125,-0.00870003,-0.05771557
2992.1875,-0.01928343,-0.06905594
2996.09375,0.00336279,-0.07529217
3000.0,0.00810760,-0.07498746
3003.90625,-0.00602383,-0.06895898
3007.8125,-0.01375555,-0.05530132
3011.71875,0.00976290,-0.03554799
3015.625,0.00543415,-0.01806290
3019.53125,0.00751914,-0.01034426
3023.4375,0.01833748,-0.01042141
3027.34375,-0.00467914,-0.00869102
3031.25,-0.00221552,-0.00062742
3035.15625,0.01981855,0.00252391
3039.0625,0.00500393,-0.01835487
3042.96875,0.02351459,-0.06760398
3046.875,-0.03955812,-0.12498018
3050.78125,-0.02900311,-0.16548485
3054.6875,-0.00646772,-0.18560758
3058.59375,-0.01151603,-0.20108709
3062.5,-0.03512891,-0.22321777
3066.40625,-0.03729467,-0.25011280
3070.3125,-0.04166990,-0.27941501
3074.21875,-0.02881414,-0.31644711
3078.125,-0.05911544,-0.36595494
3082.03125,-0.04921341,-0.42125735
3085.9375,-0.06189116,-0.46403965
3089.84375,-0.09372482,-0.47660264
3093.75,-0.05837074,-0.45895997
3097.65625,-0.04289176,-0.43254712
3101.5625,-0.07021078,-0.42273980
3105.46875,-0.06013371,-0.44008112
3109.375,-0.06912612,-0.47782910
3113.28125,-0.07117267,-0.51911229
3117.1875,-0.08681885,-0.54435205
3121.09375,-0.06551591,-0.53873032
3125.0,-0.08308724,-0.49890822
3128.90625,-0.06047832,-0.43589067
3132.8125,-0.04445372,-0.36999276
3136.71875,-0.03631862,-0.31686234
3140.625,-0.03964362,-0.27540609
3144.53125,-0.02281055,-0.23084198
3148.4375,-0.02416959,-0.16901094
3152.34375,0.00689700,-0.08722010
3156.25,-0.00709053,0.00429576
3160.15625,0.04870826,0.08779237
3164.0625,0.03351835,0.14825423
3167.96875,0.02953653,0.18234530
3171.875,0.05797641,0.19754697
3175.78125,0.02964834,0.20328639
3179.6875,0.05869152,0.20311062
3183.59375,0.03751034,0.19388583
3187.5,0.04554821,0.17269951
3191.40625,0.03645635,0.14467251
3195.3125,0.03042622,0.12165542
3199.21875,0.02773642,0.11068906
3203.125,0.03076275,0.10317656
3207.03125,0.01739769,0.07702035
3210.9375,0.03490261,0.01381291
3214.84375,0.00458225,-0.08094121
3218.75,-0.03828914,-0.17649485
3222.65625,-0.02500023,-0.24284978
3226.5625,-0.02933201,-0.27843520
3230.46875,-0.03174623,-0.30791542
3234.375,-0.03714404,-0.35460037
3238.28125,-0.06828785,-0.41880795
3242.1875,-0.05731180,-0.48096019
3246.09375,-0.07606488,-0.51998496
3250.0,-0.06945158,-0.52754962
3253.90625,-0.07717374,-0.51084358
3257.8125,-0.06058867,-0.48792079
3261.71875,-0.06381054,-0.47856322
3265.625,-0.05653349,-0.49209604
3269.53125,-0.08210931,-0.51944548
3273.4375,-0.07544325,-0.53847945
3277.34375,-0.06422040,-0.52909821
3281.25,-0.06604020,-0.48438105
3285.15625,-0.06075157,-0.41260543
3289.0625,-0.04037321,-0.33359519
3292.96875,-0.01308419,-0.26852119
3296.875,-0.02868018,-0.22490378
3300.78125,-0.00689857,-0.19099736
3304.6875,-0.03643907,-0.15026404
3308.59375,0.01107618,-0.10301673
3312.5,0.01876539,-0.06849046
3316.40625,-0.00076665,-0.06273934
3320.3125,-0.00499041,-0.08030857
3324.21875,0.01163216,-0.10018982
3328.125,-0.01352282,-0.10417891
3332.03125,0.01164716,-0.08903646
3335.9375,-0.01235013,-0.06718770
3339.84375,0.02800418,-0.05679858
3343.75,0.00789945,-0.06583539
3347.65625,-0.00163849,-0.08401120
3351.5625,-0.01927412,-0.09441856
3355.46875,0.02187087,-0.09258357
3359.375,0.00397899,-0.08842552
3363.28125,-0.00543047,-0.09116445
3367.1875,0.01387268,-0.09872074
3371.09375,-0.01810395,-0.10178835
3375.0,0.01002888,-0.09514675
3378.90625,0.01184281,-0.08367547
3382.8125,-0.00776911,-0.07736782
3386.71875,0.00955728,-0.08247422
3390.625,0.01540238,-0.09682932
3394.53125,-0.01377209,-0.11181471
3398.4375,-0.01303777,-0.12269168
3402.34375,0.00548704,-0.13763554
3406.25,0.00487472,-0.16798219
3410.15625,-0.01365570,-0.20760649
3414.0625,-0.04225001,-0.23281825
3417.96875,-0.02395411,-0.22860566
3421.875,0.00822177,-0.20671035
3425.78125,-0.01427694,-0.19151479
3429.6875,-0.02192995,-0.19555075
3433.59375,-0.00913244,-0.21475253
3437.5,-0.03849769,-0.24051407
3441.40625,0.00499823,-0.26859245
3445.3125,-0.05030856,-0.29849431
3449.21875,-0.03539067,-0.33165821
3453.125,-0.03532815,-0.37182304
3457.03125,-0.04021065,-0.42090836
3460.9375,-0.06954352,-0.47338405
3464.84375,-0.06967332,-0.52095902
3468.75,-0.06311666,-0.56318033
3472.65625,-0.08426823,-0.60897636
3476.5625,-0.08775154,-0.66836745
3480.46875,-0.10294188,-0.74300879
3484.375,-0.10886573,-0.81932449
3488.28125,-0.12366689,-0.86769956
3492.1875,-0.12292596,-0.85223490
3496.09375,-0.09795491,-0.74640876
3500.0,-0.08158295,-0.54293203
3503.90625,-0.00897217,-0.25094518
3507.8125,0.04208181,0.11854863
3511.71875,0.12673835,0.56975377
3515.625,0.19063248,1.12352300
3519.53125,0.30502105,1.79346216
3523.4375,0.45108831,2.55598402
3527.34375,0.57077813,3.34580183
3531.25,0.69123650,4.08143330
3535.15625,0.80422705,4.69613743
3539.0625,0.85980719,5.15128136
3542.96875,0.90388614,5.42701674
3546.875,0.91941762,5.50465012
3550.78125,0.92764145,5.36518812
3554.6875,0.83957678,5.00820971
3558.59375,0.73915118,4.46456575
3562.5,0.65301788,3.78626084
3566.40625,0.52143317,3.03077626
3570.3125,0.39344424,2.25518775
3574.21875,0.26797694,1.51087832
3578.125,0.14692536,0.83279520
3582.03125,0.07535649,0.23615918
3585.9375,-0.01372134,-0.27085060
3589.84375,-0.09830173,-0.67426032
3593.75,-0.14158188,-0.96152568
3597.65625,-0.16550159,-1.13966906
3601.5625,-0.16545658,-1.23660707
3605.46875,-0.19196679,-1.28165960
3609.375,-0.18972541,-1.28958976
3613.28125,-0.18908118,-1.26433647
3617.1875,-0.17632471,-1.21202123
3621.09375,-0.15385701,-1.14568353
3625.0,-0.16396506,-1.07934499
3628.90625,-0.14794670,-1.02119470
3632.8125,-0.11653893,-0.97065973
3636.71875,-0.14444014,-0.91853201
3640.625,-0.11108694,-0.85288316
3644.53125,-0.10159524,-0.76880628
3648.4375,-0.09395351,-0.67292660
3652.34375,-0.07024010,-0.58061761
3656.25,-0.04569129,-0.50846821
3660.15625,-0.06147775,-0.46372485
3664.0625,-0.05205090,-0.43844631
3667.96875,-0.03411218,-0.41450664
3671.875,-0.04653241,-0.37496778
3675.78125,-0.02785047,-0.31507811
3679.6875,-0.01158120,-0.24611746
3683.59375,-0.00505378,-0.18679097
3687.5,-0.00960149,-0.14934008
3691.40625,0.01836198,-0.13259195
3695.3125,-0.00327326,-0.12370959
3699.21875,0.00617790,-0.10624672
3703.125,0.00571563,-0.07251318
3707.03125,0.02472618,-0.03061324
3710.9375,0.03121598,0.00285689
3714.84375,0.02086291,0.01713591
3718.75,0.03579100,0.01357490
3722.65625,0.01619325,0.00036430
3726.5625,0.02092231,-0.01626603
3730.46875,0.02069325,-0.03646958
3734.375,0.01567310,-0.06413448
3738.28125,0.01606423,-0.10009480
3742.1875,-0.00041102,-0.13784377
3746.09375,-0.01531351,-0.16700514
3750.0,0.00123081,-0.18181187
3753.90625,0.00159302,-0.18402460
3757.8125,0.00187587,-0.17641619
3761.71875,-0.00883651,-0.15808363
3765.625,-0.01211962,-0.13084872
3769.53125,0.02643037,-0.10649763
3773.4375,0.01106482,-0.09964003
3777.34375,0.00598289,-0.11244926
3781.25,0.00393838,-0.13111357
3785.15625,-0.00571998,-0.13868402
3789.0625,0.00008081,-0.13125597
3792.96875,0.01501587,-0.12234057
3796.875,0.01271118,-0.12985699
3800.78125,-0.00711385,-0.15775798
3804.6875,-0.00762296,-0.19180757
3808.59375,-0.01003523,-0.21281877
3812.5,-0.01464274,-0.21310036
3816.40625,0.00182621,-0.20243931
3820.3125,-0.00479586,-0.19999377
3824.21875,-0.01251406,-0.21968766
3828.125,-0.02757181,-0.26188132
3832.03125,-0.00963213,-0.31470451
3835.9375,-0.02871878,-0.35993186
3839.84375,-0.06324046,-0.38406134
3843.75,-0.02213693,-0.39146996
3847.65625,-0.03815679,-0.40216351
3851.5625,-0.05103534,-0.43078434
3855.46875,-0.03059040,-0.47062591
3859.375,-0.07579742,-0.49934942
3863.28125,-0.05606530,-0.49776229
3867.1875,-0.03943912,-0.46310133
3871.09375,-0.05444396,-0.40769517
3875.0,-0.01854894,-0.34964791
3878.90625,-0.01511570,-0.30340323
3882.8125,-0.03022486,-0.27308342
3886.71875,-0.02470949,-0.25430807
3890.625,0.00040021,-0.24184099
3894.53125,-0.00483116,-0.23008725
3898.4375,-0.01640700,-0.20824933
3902.34375,0.00187026,-0.16428685
3906.25,0.00332270,-0.09625964
3910.15625,0.02993651,-0.01686429
3914.0625,0.03317193,0.05399885
3917.96875,0.05570710,0.10272086
3921.875,0.04898483,0.13207409
3925.78125,0.04263173,0.15750968
3929.6875,0.04310868,0.18840346
3933.59375,0.07793155,0.21368015
3937.5,0.07694426,0.21342988
3941.40625,0.05186005,0.18534538
3945.3125,0.04283575,0.15135553
3949.21875,0.03877102,0.13505526
3953.125,0.06511837,0.13758928
3957.03125,0.04293600,0.13751847
3960.9375,0.06208581,0.11134349
3964.84375,0.02733549,0.05437031
3968.75,0.01984950,-0.01605740
3972.65625,0.01088905,-0.07800093
3976.5625,0.01146464,-0.12512076
3980.46875,0.01511452,-0.16773103
3984.375,-0.02676980,-0.21708553
3988.28125,-0.01516054,-0.27457631
3992.1875,-0.01626025,-0.33424649
3996.09375,-0.04238230,-0.38943669
4000.0,-0.05158120,-0.43795785
4003.90625,-0.03883823,-0.48303917
4007.8125,-0.06289805,-0.52585989
4011.71875,-0.06120583,-0.55781353
4015.625,-0.06991194,-0.56610900
4019.53125,-0.06396864,-0.54815203
4023.4375,-0.05226090,-0.51642716
4027.34375,-0.04753941,-0.48648635
4031.25,-0.04991960,-0.46114013
4035.15625,-0.04043979,-0.42962167
4039.0625,-0.05057905,-0.38341236
4042.96875,-0.00287537,-0.32933283
4046.875,-0.03319375,-0.28342003
4050.78125,-0.00625871,-0.25452000
4054.6875,-0.01426886,-0.23752049
4058.59375,0.00270958,-0.21961966
4062.5,-0.01459207,-0.18982850
4066.40625,0.00778299,-0.14545713
4070.3125,0.00696580,-0.09378339
4074.21875,0.03050609,-0.04771778
4078.125,0.03170256,-0.01679591
4082.03125,0.02241729,0.00009600
4085.9375,0.02368475,0.01269044
4089.84375,0.04154243,0.02921070
4093.75,0.03092694,0.04786611
4097.65625,0.04332169,0.05682106
4101.5625,0.03850611,0.04313174
4105.46875,0.02766314,0.00569419
4109.375,0.02780325,-0.03908869
4113.28125,0.00640260,-0.06729979
4117.1875,0.02575732,-0.06624451
4121.09375,0.02056190,-0.04468479
4125.0,0.02051055,-0.02552285
4128.90625,0.03600650,-0.02781475
4132.8125,0.01801440,-0.05219359
4136.71875,0.01472228,-0.08142193
4140.625,0.01301156,-0.09639174
4144.53125,0.00683580,-0.09237569
4148.4375,0.02812951,-0.07989781
4152.34375,0.01017090,-0.07237709
4156.25,0.02544302,-0.07547886
4160.15625,0.01846281,-0.08634097
4164.0625,0.00089915,-0.09906887
4167.96875,0.01202009,-0.11049130
4171.875,0.02222573,-0.12129541
4175.78125,0.00350765,-0.13230532
4179.6875,0.00730804,-0.14312986
4183.59375,0.00132623,-0.15586595
4187.5,-0.00176067,-0.17677039
4191.40625,0.00527724,-0.21246320
4195.3125,-0.02004704,-0.26588297
4199.21875,-0.02220401,-0.33562210
4203.125,-0.02657277,-0.41585550
4207.03125,-0.07220512,-0.49719760
4210.9375,-0.05880309,-0.57356787
4214.84375,-0.06940927,-0.64858478
4218.75,-0.08152940,-0.72825420
4222.65625,-0.10755451,-0.80622071
4226.5625,-0.11990958,-0.86029202
4230.46875,-0.09851453,-0.86169654
4234.375,-0.10493465,-0.78399456
4238.28125,-0.06245213,-0.60635871
4242.1875,-0.01797852,-0.31408709
4246.09375,0.04199160,0.10116758
4250.0,0.13476661,0.63717335
4253.90625,0.23510456,1.27125859
4257.8125,0.36666390,1.95420861
4261.71875,0.46254206,2.61675096
4265.625,0.52828795,3.18159223
4269.53125,0.63186419,3.57240248
4273.4375,0.65156537,3.72787547
4277.34375,0.63648665,3.62488866
4281.25,0.56010163,3.29089355
4285.15625,0.48505974,2.78886247
4289.0625,0.38451415,2.18786597
4292.96875,0.30140549,1.54521930
4296.875,0.17993903,0.90910751
4300.78125,0.08854955,0.32799542
4304.6875,0.00499774,-0.15101027
4308.59375,-0.06710622,-0.49870813
4312.5,-0.07959766,-0.72056198
4316.40625,-0.08677192,-0.85160631
4320.3125,-0.12682508,-0.92840129
4324.21875,-0.13430554,-0.96680212
4328.125,-0.12499050,-0.96574223
4332.03125,-0.11393414,-0.92363805
4335.9375,-0.11165404,-0.84845936
4339.84375,-0.08778295,-0.75847840
4343.75,-0.07422968,-0.67548329
4347.65625,-0.07865315,-0.61351907
4351.5625,-0.04805772,-0.57167983
4355.46875,-0.05331373,-0.53690970
4359.375,-0.05871208,-0.49583960
4363.28125,-0.04328208,-0.44842210
4367.1875,-0.02487924,-0.40947738
4371.09375,-0.02849797,-0.39357525
4375.0,-0.03350283,-0.40060666
4378.90625,-0.03549641,-0.41825828
4382.8125,-0.03888630,-0.43436083
4386.71875,-0.04285958,-0.44448301
4390.625,-0.04126260,-0.45168537
4394.53125,-0.02664192,-0.46118662
4398.4375,-0.05337010,-0.47248900
4402.34375,-0.03564459,-0.47561279
4406.25,-0.05744151,-0.45767739
4410.15625,-0.02767789,-0.41497290
4414.0625,-0.01251033,-0.35727948
4417.96875,-0.02613138,-0.29943261
4421.875,0.00623160,-0.25044438
4425.78125,-0.01759166,-0.21073540
4429.6875,0.02048610,-0.17592160
4433.59375,0.00694803,-0.14055690
4437.5,0.02216061,-0.10027499
4441.40625,0.02027653,-0.05442364
4445.3125,0.03897149,-0.00753243
4449.21875,0.03513259,0.03369621
4453.125,0.05533942,0.06517532
4457.03125,0.04593435,0.08647803
4460.9375,0.05154371,0.09774438
4464.84375,0.04724880,0.09745117
4468.75,0.05617696,0.08492372
4472.65625,0.04534027,0.06425956
4476.5625,0.04711289,0.04298887
4480.46875,0.03176509,0.02591372
4484.375,0.04046355,0.01201184
4488.28125,0.03860685,-0.00131935
4492.1875,0.03855983,-0.01209714
4496.09375,0.03778348,-0.01437229
4500.0,0.01552839,-0.00741877
4503.90625,0.04048643,-0.00330772
4507.8125,0.05479775,-0.01843569
4511.71875,0.02585872,-0.05374861
4515.625,-0.00021058,-0.09086528
4519.53125,0.03081120,-0.11236446
4523.4375,0.01988716,-0.11793119
4527.34375,0.01621427,-0.11768437
4531.25,0.01973466,-0.11857782
4535.15625,0.01749845,-0.12086347
4539.0625,0.01441449,-0.12221273
4542.96875,0.02337194,-0.12100290
4546.875,0.01948769,-0.11565242
4550.78125,0.01227552,-0.10468472
4554.6875,0.02396979,-0.09209607
4558.59375,0.02983606,-0.09004901
4562.5,0.02906616,-0.10862617
4566.40625,0.00030777,-0.14230388
4570.3125,0.01100291,-0.17260364
4574.21875,0.01542802,-0.18537386
4578.125,0.00730364,-0.18283698
4582.03125,0.00095313,-0.18101175
4585.9375,0.01304699,-0.19834052
4589.84375,-0.00006711,-0.24286725
4593.75,-0.00198939,-0.30481100
4597.65625,-0.02880253,-0.36109054
4601.5625,-0.03092487,-0.39057183
4605.46875,-0.02250653,-0.38850665
4609.375,-0.01647830,-0.36770061
4613.28125,-0.00902240,-0.34627965
4617.1875,-0.03001829,-0.33483344
4621.09375,-0.00144176,-0.33261093
4625.0,-0.01695045,-0.33063388
4628.90625,-0.02241329,-0.31849301
4632.8125,-0.00388188,-0.29319146
4636.71875,0.00812675,-0.26137933
4640.625,-0.00283518,-0.23072788
4644.53125,0.00312858,-0.20216100
4648.4375,0.01292026,-0.17150895
4652.34375,0.02645427,-0.13403966
4656.25,0.02251673,-0.08711348
4660.15625,0.03294873,-0.03390278
4664.0625,0.04357062,0.01460522
4667.96875,0.04778141,0.04629059
4671.875,0.06126202,0.06000191
4675.78125,0.05533668,0.07070483
4679.6875,0.04610744,0.09996236
4683.59375,0.06793582,0.15736172
4687.5,0.07311963,0.22870508
4691.40625,0.10213834,0.28282288
4695.3125,0.09282515,0.29317042
4699.21875,0.08379354,0.25728008
4703.125,0.07076877,0.19765292
4707.03125,0.05850849,0.14263622
4710.9375,0.05914468,0.10388877
4714.84375,0.06617966,0.07156427
4718.75,0.05069717,0.03106352
4722.65625,0.03122451,-0.01887091
4726.5625,0.03635819,-0.06705322
4730.46875,0.01614516,-0.10603826
4734.375,0.01943978,-0.14412160
4738.28125,0.02680562,-0.19871980
4742.1875,0.00503945,-0.27552676
4746.09375,-0.04414415,-0.35810125
4750.0,-0.00953795,-0.42356455
4753.90625,-0.03696372,-0.46526083
4757.8125,-0.03461417,-0.49659994
4761.71875,-0.04100583,-0.53685588
4765.625,-0.04988346,-0.59532255
4769.53125,-0.08311398,-0.66753054
4773.4375,-0.05811073,-0.74524403
4777.34375,-0.09861812,-0.82692540
4781.25,-0.11446875,-0.91745681
4785.15625,-0.11752746,-1.01799762
4789.0625,-0.12456384,-1.10889864
4792.96875,-0.14107817,-1.13499081
4796.875,-0.13266240,-1.01153171
4800.78125,-0.05405553,-0.65326542
4804.6875,0.03707373,-0.00637339
4808.59375,0.20066847,0.93178266
4812.5,0.39945212,2.10325408
4816.40625,0.58744603,3.38557863
4820.3125,0.79342610,4.59615660
4824.21875,0.96149915,5.51765442
4828.125,1.02266014,5.95388079
4832.03125,1.02173281,5.79979229
4835.9375,0.87865585,5.08707523
4839.84375,0.69037938,3.97451401
4843.75,0.47754705,2.68622923
4847.65625,0.28766131,1.43529642
4851.5625,0.10400130,0.37233430
4855.46875,-0.01822476,-0.42988798
4859.375,-0.12001439,-0.96627045
4863.28125,-0.15028323,-1.27467775
4867.1875,-0.18389559,-1.40664434
4871.09375,-0.18646151,-1.40803444
4875.0,-0.17432211,-1.31785762
4878.90625,-0.13274689,-1.17413390
4882.8125,-0.12630352,-1.01183927
4886.71875,-0.09183424,-0.85596997
4890.625,-0.07075083,-0.71996999
4894.53125,-0.04384235,-0.60811895
4898.4375,-0.03846527,-0.51710743
4902.34375,-0.03269365,-0.43989483
4906.25,-0.00956670,-0.37277049
4910.15625,0.00357083,-0.31780875
4914.0625,-0.00234845,-0.27770454
4917.96875,0.01110824,-0.25025395
4921.875,0.02175378,-0.22767620
4925.78125,-0.00901784,-0.20184724
4929.6875,0.03351441,-0.17423040
4933.59375,0.02764200,-0.15919739
4937.5,0.01897223,-0.17105860
4941.40625,0.02867591,-0.20652954
4945.3125,-0.01073934,-0.24305283
4949.21875,0.01387587,-0.25660831
4953.125,0.01456238,-0.24158616
4957.03125,0.01348068,-0.21436791
4960.9375,0.01038454,-0.20159404
4964.84375,0.02413755,-0.22422171
4968.75,0.00760879,-0.28353527
4972.65625,-0.01108298,-0.35708636
4976.5625,-0.02398410,-0.41284564
4980.46875,-0.02081776,-0.43266958
4984.375,-0.01602954,-0.42332461
4988.28125,-0.01069099,-0.40609944
4992.1875,-0.01450443,-0.39769024
4996.09375,-0.01166742,-0.40005553
5000.0,-0.02103157,-0.40477514
5003.90625,-0.01748997,-0.40393946
5007.8125,-0.00558264,-0.39563480
5011.71875,-0.00966868,-0.38031489
5015.625,-0.01050486,-0.35643625
5019.53125,-0.00272209,-0.32227162
5023.4375,0.01446683,-0.27841952
5027.34375,0.00936373,-0.22615044
5031.25,0.01923312,-0.16706529
5035.15625,0.05245112,-0.10502271
5039.0625,0.03698341,-0.04387178
5042.96875,0.04857349,0.01519775
5046.875,0.06699244,0.06955352
5050.78125,0.08134944,0.11231191
5054.6875,0.07500706,0.13799880
5058.59375,0.05650265,0.14694637
5062.5,0.10475014,0.14322115
5066.40625,0.06797597,0.13436095
5070.3125,0.06626409,0.13054413
5074.21875,0.07036413,0.13490453
5078.125,0.09604919,0.13776451
5082.03125,0.07487172,0.12773529
5085.9375,0.04798817,0.10282624
5089.84375,0.08744749,0.06523954
5093.75,0.03897214,0.01371140
5097.65625,0.07206655,-0.05201276
5101.5625,0.01003679,-0.12428007
5105.46875,0.02931540,-0.19091314
5109.375,0.02120188,-0.24394965
5113.28125,0.00365822,-0.28328887
5117.1875,0.00006488,-0.31567535
5121.09375,0.00442075,-0.35188234
5125.0,-0.01478691,-0.39996412
5128.90625,-0.01625125,-0.45842001
5132.8125,-0.03003673,-0.51678538
5136.71875,-0.03445706,-0.56215632
5140.625,-0.04754497,-0.58618599
5144.53125,-0.04363175,-0.59049547
5148.4375,-0.03275119,-0.58633620
5152.34375,-0.02943898,-0.58449811
5156.25,-0.05433957,-0.58481872
5160.15625,-0.04404742,-0.57999074
5164.0625,-0.02933875,-0.56765372
5167.96875,-0.02674943,-0.55024254
5171.875,-0.02778260,-0.52267742
5175.78125,-0.03486023,-0.47016627
5179.6875,0.00156944,-0.38464928
5183.59375,-0.00159868,-0.28097188
5187.5,0.04008964,-0.19171730
5191.40625,0.03788503,-0.14211486
5195.3125,0.03684814,-0.12859461
5199.21875,0.02315583,-0.12418658
5203.125,0.03658080,-0.10527551
5207.03125,0.06420251,-0.06889559
5210.9375,0.04574452,-0.02569496
5214.84375,0.05551228,0.01283912
5218.75,0.06588099,0.03668288
5222.65625,0.06898225,0.03812604
5226.5625,0.05729645,0.01874841
5230.46875,0.06664953,-0.00777332
5234.375,0.03844177,-0.02524315
5238.28125,0.05572517,-0.02938611
5242.1875,0.05095239,-0.03186942
5246.09375,0.06881209,-0.04648155
5250.0,0.04956570,-0.07071657
5253.90625,0.01323579,-0.08729911
5257.8125,0.05448113,-0.08687988
5261.71875,0.06452360,-0.08074185
5265.625,0.03474021,-0.08699597
5269.53125,0.03279537,-0.11413205
5273.4375,0.04049951,-0.16111284
5277.34375,0.01849121,-0.22234568
5281.25,0.01583861,-0.28686517
5285.15625,0.01764709,-0.33734369
5289.0625,-0.02664129,-0.35701489
5292.96875,0.00556429,-0.34436220
5296.875,0.01979560,-0.31963637
5300.78125,0.01854485,-0.30828464
5304.6875,-0.00753215,-0.31738475
5308.59375,0.00761837,-0.33338574
5312.5,0.00346106,-0.34012944
5316.40625,0.00095746,-0.33414128
5320.3125,0.02021041,-0.32433689
5324.21875,-0.00279450,-0.32148924
5328.125,0.00384860,-0.33046061
5332.03125,0.01261594,-0.35031992
5335.9375,-0.00829273,-0.37597272
5339.84375,0.00030404,-0.39863819
5343.75,-0.01389479,-0.41014537
5347.65625,-0.00481470,-0.41054946
5351.5625,-0.00849429,-0.41058147
5355.46875,-0.00196955,-0.42370281
5359.375,-0.01742939,-0.45434734
5363.28125,-0.01723662,-0.49453929
5367.1875,-0.03457977,-0.53118747
5371.09375,-0.02366889,-0.55381089
5375.0,-0.02858766,-0.55532402
5378.90625,-0.03100368,-0.53166640
5382.8125,-0.01806702,-0.48695603
5386.71875,-0.01121477,-0.43720350
5390.625,-0.00841980,-0.40240902
5394.53125,0.01014633,-0.39079520
5398.4375,-0.00461703,-0.38935381
5402.34375,-0.00092998,-0.37169364
5406.25,-0.01136220,-0.32056099
5410.15625,0.03520091,-0.24547535
5414.0625,0.03738644,-0.17567350
5417.96875,0.04391154,-0.13419096
5421.875,0.03400321,-0.12015518
5425.78125,0.04248748,-0.11409377
5429.6875,0.04876880,-0.09557682
5433.59375,0.04467463,-0.05688902
5437.5,0.06833044,-0.00631926
5441.40625,0.06434549,0.03827855
5445.3125,0.08011868,0.06069892
5449.21875,0.06519876,0.05349051
5453.125,0.05563102,0.01562152
5457.03125,0.05879718,-0.05294888
5460.9375,0.04966547,-0.14842707
5464.84375,0.01611116,-0.25467780
5468.75,-0.00348779,-0.34585029
5472.65625,-0.01153970,-0.40391907
5476.5625,0.00180437,-0.43137026
5480.46875,-0.00977157,-0.44214320
5484.375,-0.00260391,-0.43872219
5488.28125,-0.00938942,-0.39711705
5492.1875,0.01652163,-0.27366734
5496.09375,0.04598859,-0.02961951
5500.0,0.13236500,0.34653580
5503.90625,0.19482636,0.83832556
5507.8125,0.30182770,1.41963243
5511.71875,0.40081403,2.07010913
5515.625,0.50655782,2.77167392
5519.53125,0.64932919,3.49256635
5523.4375,0.73155642,4.17768908
5527.34375,0.85320956,4.75522566
5531.25,0.90767658,5.15572357
5535.15625,0.94504398,5.33324909
5539.0625,0.91897672,5.27612448
5542.96875,0.89016646,5.00176430
5546.875,0.80432928,4.54315710
5550.78125,0.69843149,3.93770242
5554.6875,0.60564703,3.22458649
5558.59375,0.46807671,2.45132208
5562.5,0.33278343,1.67827499
5566.40625,0.21470422,0.96716321
5570.3125,0.11889388,0.35997617
5574.21875,0.04469329,-0.12997748
5578.125,-0.01479595,-0.50712812
5582.03125,-0.06068759,-0.77720749
5585.9375,-0.10934344,-0.94339484
5589.84375,-0.10188447,-1.01608157
5593.75,-0.10237537,-1.01927626
5597.65625,-0.09209533,-0.98196685
5601.5625,-0.09237928,-0.92431718
5605.46875,-0.08219133,-0.85440320
5609.375,-0.06666500,-0.77634090
5613.28125,-0.06121826,-0.69833052
5617.1875,-0.01806978,-0.63055795
5621.09375,-0.04171799,-0.57554519
5625.0,-0.03546935,-0.52624047
5628.90625,-0.01346231,-0.47792095
5632.8125,-0.00821024,-0.43721864
5636.71875,0.00031705,-0.41442984
5640.625,-0.00679631,-0.40980932
5644.53125,-0.00975198,-0.41179726
5648.4375,-0.01258804,-0.40935206
5652.34375,-0.00162585,-0.40383580
5656.25,0.00157890,-0.40545422
5660.15625,-0.00231988,-0.41732246
5664.0625,-0.01662432,-0.42739964
5667.96875,-0.01777088,-0.42015362
5671.875,0.01107565,-0.39343444
5675.78125,-0.00179102,-0.36021554
5679.6875,-0.00414274,-0.33780748
5683.59375,0.01958830,-0.33765173
5687.5,0.00922910,-0.35731611
5691.40625,-0.01768254,-0.37867725
5695.3125,-0.00559772,-0.38225856
5699.21875,0.00919653,-0.36676887
5703.125,0.00457930,-0.34974262
5707.03125,-0.00017372,-0.34907040
5710.9375,0.01396952,-0.36674026
5714.84375,-0.02253143,-0.38952455
5718.75,0.00159076,-0.40473998
5722.65625,-0.01638791,-0.41496760
5726.5625,0.00231890,-0.43452886
5730.46875,-0.01495688,-0.47088054
5734.375,-0.03558179,-0.51280606
5738.28125,-0.01509668,-0.53838789
5742.1875,-0.04972993,-0.53321970
5746.09375,-0.00733577,-0.50172824
5750.0,-0.01701483,-0.46278018
5753.90625,-0.00652395,-0.43403059
5757.8125,-0.01611224,-0.42041054
5761.71875,-0.01560450,-0.41690606
5765.625,0.00228733,-0.41720754
5769.53125,-0.00196028,-0.41537479
5773.4375,-0.02469139,-0.40470338
5777.34375,-0.00843905,-0.38390699
5781.25,0.02149457,-0.36126339
5785.15625,-0.00439902,-0.34396464
5789.0625,0.00130522,-0.32605365
5792.96875,0.01330055,-0.29325792
5796.875,0.01225061,-0.23772337
5800.78125,0.03838339,-0.16561727
5804.6875,0.04061655,-0.09239244
5808.59375,0.06086342,-0.03146309
5812.5,0.05031142,0.01353052
5816.40625,0.07698644,0.04662808
5820.3125,0.05708250,0.07111534
5824.21875,0.07302511,0.08294749
5828.125,0.07651736,0.07263972
5832.03125,0.06564558,0.03592317
5835.9375,0.05602371,-0.01717097
5839.84375,0.03813250,-0.06701524
5843.75,0.03551001,-0.10067710
5847.65625,0.04852872,-0.12305408
5851.5625,0.02939340,-0.15041101
5855.46875,0.03259616,-0.19344233
5859.375,0.00759672,-0.24823880
5863.28125,0.00613062,-0.30378729
5867.1875,-0.00313961,-0.35634807
5871.09375,-0.00509235,-0.41387877
5875.0,-0.02773545,-0.48527715
5878.90625,-0.02382806,-0.56628835
5882.8125,-0.06039964,-0.63819432
5886.71875,-0.06307748,-0.68343878
5890.625,-0.05223506,-0.70281851
5894.53125,-0.05966274,-0.71343786
5898.4375,-0.05493856,-0.72891808
5902.34375,-0.08130924,-0.74561435
5906.25,-0.05806012,-0.74929726
5910.15625,-0.07992470,-0.73153442
5914.0625,-0.04023946,-0.69669902
5917.96875,-0.05990598,-0.65453702
5921.875,-0.05052166,-0.61033118
5925.78125,-0.03104519,-0.56351173
5929.6875,-0.02538213,-0.51114172
5933.59375,-0.02774512,-0.45095935
5937.5,-0.01440951,-0.38534409
5941.40625,0.01725601,-0.32270315
5945.3125,-0.00547388,-0.27116516
5949.21875,0.03291935,-0.23060721
5953.125,0.01592207,-0.19199927
5957.03125,0.01507759,-0.14566456
5960.9375,0.05110920,-0.09196931
5964.84375,0.04850269,-0.04262489
5968.75,0.04599510,-0.01050970
5972.65625,0.05984696,-0.00017366
5976.5625,0.04715424,-0.00674977
5980.46875,0.04385384,-0.02079480
5984.375,0.05501678,-0.03396732
5988.28125,0.04985059,-0.04066065
5992.1875,0.03545581,-0.03719633
5996.09375,0.05484503,-0.02472924
6000.0,0.04057855,-0.01366498
6003.90625,0.05006750,-0.02100702
6007.8125,0.06691320,-0.05843681
6011.71875,0.00517390,-0.12163098
6015.625,0.02178834,-0.19464520
6019.53125,0.01461417,-0.26413253
6023.4375,-0.00868053,-0.32434618
6027.34375,0.00726606,-0.37116784
6031.25,-0.03339805,-0.39982116
6035.15625,-0.02077550,-0.41109017
6039.0625,0.00028818,-0.41451934
6042.96875,-0.02809682,-0.42033789
6046.875,-0.02113534,-0.43056726
6050.78125,-0.01534247,-0.44018987
6054.6875,-0.03061702,-0.44272089
6058.59375,-0.02366041,-0.43389812
6062.5,-0.01148987,-0.41407332
6066.40625,-0.01461237,-0.38822132
6070.3125,-0.01852977,-0.36416706
6074.21875,0.00003184,-0.35132700
6078.125,-0.01831300,-0.35766163
6082.03125,-0.00724844,-0.38387921
6085.9375,-0.01635067,-0.42013896
6089.84375,-0.03530384,-0.45104918
6093.75,-0.03241153,-0.46775949
6097.65625,-0.01803897,-0.47572467
6101.5625,-0.04583754,-0.48951557
6105.46875,-0.03201446,-0.52141982
6109.375,-0.03381079,-0.57266098
6113.28125,-0.06364144,-0.63045889
6117.1875,-0.08252124,-0.67705554
6121.09375,-0.05881473,-0.70680344
6125.0,-0.06240196,-0.73010987
6128.90625,-0.08917552,-0.75760144
6132.8125,-0.07531749,-0.78341079
6136.71875,-0.08356624,-0.78070527
6140.625,-0.07806677,-0.70667529
6144.53125,-0.03122134,-0.51205909
6148.4375,0.03753256,-0.15105776
6152.34375,0.08053412,0.40641016
6156.25,0.23933153,1.15578413
6160.15625,0.39151251,2.04690027
6164.0625,0.54017800,2.99893594
6167.96875,0.68373609,3.92668486
6171.875,0.82587284,4.75134659
6175.78125,0.91765100,5.39699697
6179.6875,1.01587725,5.79245853
6183.59375,0.99167454,5.88505983
6187.5,0.98445714,5.65534163
6191.40625,0.88725853,5.12358379
6195.3125,0.74716699,4.34796095
6199.21875,0.60490316,3.41501093
6203.125,0.45025241,2.42512918
6207.03125,0.27989417,1.47656655
6210.9375,0.13498656,0.64659339
6214.84375,0.05139147,-0.02402482
6218.75,-0.04554016,-0.52916569
6222.65625,-0.10147963,-0.88233632
6226.5625,-0.15663588,-1.10837030
6230.46875,-0.14841823,-1.24204969
6234.375,-0.16387089,-1.31655622
6238.28125,-0.19118793,-1.34700835
6242.1875,-0.19213250,-1.33396339
6246.09375,-0.15860009,-1.28397477
6250.0,-0.15414889,-1.21599507
6253.90625,-0.14972140,-1.14637184
6257.8125,-0.14115883,-1.07764137
6261.71875,-0.12487751,-1.00495636
6265.625,-0.11410964,-0.92828876
6269.53125,-0.10664465,-0.85725433
6273.4375,-0.08198846,-0.80527490
6277.34375,-0.07762513,-0.77691013
6281.25,-0.11810589,-0.76226085
6285.15625,-0.07400376,-0.74784046
6289.0625,-0.06180331,-0.72766703
6292.96875,-0.09107713,-0.69858867
6296.875,-0.07190115,-0.65407532
6300.78125,-0.06167198,-0.59024060
6304.6875,-0.03846542,-0.51218843
6308.59375,-0.03375273,-0.43066192
6312.5,-0.02554276,-0.35639697
6316.40625,-0.01723125,-0.29826200
6320.3125,0.00115724,-0.26073533
6324.21875,0.00291376,-0.23792285
6328.125,-0.00399318,-0.21192509
6332.03125,0.00391210,-0.16365808
6335.9375,0.01465231,-0.08931746
6339.84375,0.05039985,-0.00566228
6343.75,0.03794910,0.06136345
6347.65625,0.04577633,0.09245436
6351.5625,0.05988698,0.08402538
6355.46875,0.04498241,0.04955326
6359.375,0.01594916,0.01093973
6363.28125,0.04216278,-0.01794729
6367.1875,0.02858720,-0.03861648
6371.09375,0.02569483,-0.05821068
6375.0,0.01924629,-0.07828990
6378.90625,0.02104809,-0.09484332
6382.8125,0.00270074,-0.10499609
6386.71875,0.02340930,-0.11242086
6390.625,0.01374517,-0.12685890
6394.53125,0.00559751,-0.15729839
6398.4375,-0.00058979,-0.20491867
6402.34375,-0.02294632,-0.26242656
6406.25,-0.00422948,-0.31855556
6410.15625,-0.03052906,-0.36187261
6414.0625,-0.04180011,-0.38353330
6417.96875,-0.02883884,-0.38170430
6421.875,-0.02521587,-0.36354402
6425.78125,-0.02602428,-0.34033945
6429.6875,-0.01612050,-0.32051757
6433.59375,-0.03419468,-0.30737057
6437.5,-0.01475192,-0.30175757
6441.40625,-0.01032525,-0.30381539
6445.3125,-0.02449076,-0.31111750
6449.21875,-0.04069809,-0.32014254
6453.125,-0.01154785,-0.33211917
6457.03125,-0.02710425,-0.35111880
6460.9375,-0.02517438,-0.37270796
6464.84375,-0.04454899,-0.38138247
6468.75,-0.04956201,-0.36695209
6472.65625,-0.00902689,-0.34140658
6476.5625,-0.01929347,-0.33122593
6480.46875,-0.03919895,-0.35124496
6484.375,-0.03643575,-0.39100605
6488.28125,-0.04682230,-0.42568678
6492.1875,-0.03362916,-0.43525898
6496.09375,-0.05927746,-0.41587445
6500.0,-0.02552863,-0.37992147
6503.90625,-0.03071402,-0.34598529
6507.8125,-0.02208954,-0.32544300
6511.71875,-0.03391439,-0.31748995
6515.625,-0.02605917,-0.31540626
6519.53125,-0.02630990,-0.31411952
6523.4375,-0.02264518,-0.31171098
6527.34375,-0.03251959,-0.30698717
6531.25,-0.00796183,-0.29600561
6535.15625,-0.03227537,-0.27035323
6539.0625,-0.01765618,-0.22396758
6542.96875,-0.00629331,-0.16515689
6546.875,0.02837129,-0.11425297
6550.78125,-0.00503264,-0.08266779
6554.6875,0.01639354,-0.05943640
6558.59375,0.02381486,-0.02365346
6562.5,0.00415699,0.03156856
6566.40625,0.05816729,0.08924420
6570.3125,0.04541913,0.12347545
6574.21875,0.03943003,0.12386219
6578.125,0.03480445,0.10295731
6582.03125,0.04692350,0.08247969
6585.9375,0.00831641,0.07449890
6589.84375,0.05160608,0.06958807
6593.75,0.02068922,0.03931420
6597.65625,0.02502797,-0.04488929
6601.5625,-0.01772319,-0.19088709
6605.46875,-0.03831180,-0.38237530
6609.375,-0.09232066,-0.59429890
6613.28125,-0.10487092,-0.80740643
6617.1875,-0.13852325,-1.00070727
6621.09375,-0.16999389,-1.12478471
6625.0,-0.13771725,-1.08179557
6628.90625,-0.10468265,-0.73545069
6632.8125,0.01787757,0.03972397
6636.71875,0.20689394,1.27842724
6640.625,0.48576829,2.85248017
6644.53125,0.74709255,4.46161985
6648.4375,0.96912843,5.71327066
6652.34375,1.05208731,6.26227999
6656.25,1.01718783,5.94593763
6660.15625,0.82428843,4.85121822
6664.0625,0.53483963,3.27939057
6667.96875,0.27028584,1.61980295
6671.875,0.03136523,0.19676615
6675.78125,-0.10967098,-0.82783353
6679.6875,-0.20801285,-1.45335031
6683.59375,-0.27701801,-1.76681519
6687.5,-0.27600670,-1.86317575
6691.40625,-0.29586893,-1.80785394
6695.3125,-0.24934052,-1.64280427
6699.21875,-0.22308481,-1.40637004
6703.125,-0.16506347,-1.14024103
6707.03125,-0.12074464,-0.88019776
6710.9375,-0.09874421,-0.64570248
6714.84375,-0.06127804,-0.44127694
6718.75,-0.02562025,-0.26628277
6722.65625,-0.00264921,-0.12123627
6726.5625,0.01245189,-0.00753265
6730.46875,0.02604531,0.07398526
6734.375,0.02406993,0.12321720
6738.28125,0.05500214,0.14253905
6742.1875,0.03573726,0.14040406
6746.09375,0.02048602,0.12985134
6750.0,0.03925731,0.11871389
6753.90625,0.02766341,0.10227643
6757.8125,0.02844347,0.06841457
6761.71875,0.02260360,0.01054147
6765.625,-0.01025447,-0.06349815
6769.53125,-0.00791842,-0.13464779
6773.4375,-0.01077454,-0.18522294
6777.34375,-0.03325997,-0.20962368
6781.25,-0.01352322,-0.21582967
6785.15625,-0.03400269,-0.21900654
6789.0625,-0.02103034,-0.23273329
6792.96875,-0.02347332,-0.26181486
6796.875,-0.04010303,-0.29875866
6800.78125,-0.05996270,-0.32868809
6804.6875,-0.03042017,-0.34187362
6808.59375,-0.04858189,-0.34008229
6812.5,-0.03216543,-0.32946038
6816.40625,-0.06260711,-0.31227472
6820.3125,-0.02122714,-0.28846955
6824.21875,-0.03535936,-0.26062295
6828.125,-0.02764952,-0.23402293
6832.03125,-0.03405202,-0.21473135
6835.9375,-0.01806352,-0.20833391
6839.84375,-0.01450845,-0.21623683
6843.75,-0.04227377,-0.23268248
6847.65625,-0.03773547,-0.25003740
6851.5625,-0.02668603,-0.26633856
6855.46875,-0.02321987,-0.28238481
6859.375,-0.05929678,-0.29419830
6863.28125,-0.03162053,-0.29602775
6867.1875,-0.05206474,-0.28957269
6871.09375,-0.02116255,-0.28320462
6875.0,-0.03162301,-0.28014696
6878.90625,-0.04797539,-0.27205089
6882.8125,-0.04727988,-0.25009495
6886.71875,-0.01653396,-0.22093013
6890.625,-0.01298938,-0.20342389
6894.53125,-0.03458042,-0.20814899
6898.4375,-0.03676299,-0.22596832
6902.34375,-0.02117676,-0.23638543
6906.25,-0.03716847,-0.22254056
6910.15625,-0.02255260,-0.18151841
6914.0625,-0.01185366,-0.12642142
6917.96875,-0.00644951,-0.07822537
6921.875,0.00056905,-0.05245141
6925.78125,-0.00246032,-0.05015898
6929.6875,0.00231188,-0.05658861
6933.59375,-0.00449227,-0.04769288
6937.5,-0.00678446,-0.00576417
6941.40625,0.02639963,0.06410800
6945.3125,0.02304900,0.13455303
6949.21875,0.04678619,0.17728829
6953.125,0.03798866,0.18459016
6957.03125,0.01285074,0.16872105
6960.9375,0.04341733,0.14382885
6964.84375,0.02136853,0.11562497
6968.75,0.02504216,0.08803958
6972.65625,0.01657735,0.06845805
6976.5625,-0.00439013,0.05880000
6980.46875,0.03148486,0.04651408
6984.375,0.00378541,0.01341877
6988.28125,0.00201058,-0.04535501
6992.1875,-0.01664990,-0.11583129
6996.09375,-0.03266441,-0.17922643
7000.0,-0.03781682,-0.22881612
7003.90625,-0.01888318,-0.27161986
7007.8125,-0.05570010,-0.31577072
7011.71875,-0.07121037,-0.36209744
7015.625,-0.04072277,-0.40769520
7019.53125,-0.07586238,-0.44942212
7023.4375,-0.08613839,-0.48390788
7027.34375,-0.06773658,-0.51086754
7031.25,-0.09339804,-0.53430974
7035.15625,-0.07991292,-0.55565435
7039.0625,-0.08419548,-0.56685901
7042.96875,-0.09210946,-0.55295372
7046.875,-0.09333870,-0.50467283
7050.78125,-0.05688971,-0.43092078
7054.6875,-0.05483804,-0.35576254
7058.59375,-0.03449906,-0.29938176
7062.5,-0.04799100,-0.26204142
7066.40625,-0.04122727,-0.22780743
7070.3125,-0.02696847,-0.18317100
7074.21875,-0.01375298,-0.12934287
7078.125,0.00397587,-0.07577892
7082.03125,-0.02486693,-0.02705410
7085.9375,0.01913540,0.01908762
7089.84375,0.01083741,0.06499170
7093.75,0.02505930,0.11002631
7097.65625,0.01808611,0.15093778
7101.5625,0.03203107,0.18146670
7105.46875,0.05550620,0.19593462
7109.375,0.01167315,0.19616504
7113.28125,0.04121401,0.19048044
7117.1875,0.03507196,0.18461327
7121.09375,0.02861333,0.17709504
7125.0,0.02847633,0.16235688
7128.90625,0.02949553,0.13598505
7132.8125,0.01376302,0.09878203
7136.71875,0.01232270,0.05633853
7140.625,0.00457445,0.01436433
7144.53125,0.00269690,-0.02333984
7148.4375,-0.01049575,-0.05284427
7152.34375,-0.01409211,-0.07175950
7156.25,-0.00881095,-0.08609958
7160.15625,-0.01892260,-0.11119782
7164.0625,-0.01269561,-0.15923452
7167.96875,-0.03764036,-0.22439657
7171.875,-0.05956202,-0.28477180
7175.78125,-0.04012480,-0.32115492
7179.6875,-0.05219816,-0.33024228
7183.59375,-0.05432686,-0.31928742
7187.5,-0.03996032,-0.29467475
7191.40625,-0.04682506,-0.25913480
7195.3125,-0.03802427,-0.21747589
7199.21875,-0.02122958,-0.18058848
7203.125,-0.01877279,-0.15957966
7207.03125,-0.03341621,-0.15669252
7210.9375,-0.02868593,-0.16645014
7214.84375,-0.02440268,-0.18392766
7218.75,-0.01928218,-0.20583230
7222.65625,-0.04924832,-0.22637483
7226.5625,-0.05264184,-0.24118543
7230.46875,-0.01493468,-0.25317192
7234.375,-0.04164700,-0.26464179
7238.28125,-0.05565215,-0.26689264
7242.1875,-0.03309252,-0.24843003
7246.09375,-0.04444229,-0.21198960
7250.0,-0.01853253,-0.17621821
7253.90625,-0.01818290,-0.16024595
7257.8125,-0.02863036,-0.16855717
7261.71875,-0.03565864,-0.19014646
7265.625,-0.03115769,-0.20955002
7269.53125,-0.03791701,-0.21714191
7273.4375,-0.02941482,-0.21185756
7277.34375,-0.02545059,-0.19757679
7281.25,-0.03138116,-0.17692727
7285.15625,-0.02661903,-0.14877646
7289.0625,-0.02286564,-0.11255482
7292.96875,0.00656157,-0.07231579
7296.875,-0.00836320,-0.03422771
7300.78125,-0.01541422,-0.00401594
7304.6875,0.01604662,0.01137031
7308.59375,0.00486387,0.00761187
7312.5,0.00632124,-0.00647778
7316.40625,-0.01534345,-0.00927646
7320.3125,0.01097189,0.01636702
7324.21875,0.00867379,0.06763649
7328.125,0.02675363,0.12433309
7332.03125,0.02558007,0.16378967
7335.9375,0.03300643,0.17356135
7339.84375,0.03362473,0.15564936
7343.75,0.01698966,0.12274710
7347.65625,-0.00086018,0.08783768
7351.5625,0.02692869,0.05470654
7355.46875,0.01072676,0.02054627
7359.375,-0.00206893,-0.01412083
7363.28125,-0.01575176,-0.04633633
7367.1875,-0.02509674,-0.08331087
7371.09375,0.00538325,-0.14547463
7375.0,-0.04825013,-0.24966381
7378.90625,-0.05566652,-0.39070424
7382.8125,-0.09229979,-0.54269916
7386.71875,-0.12560883,-0.67855752
7390.625,-0.11908904,-0.78864938
7394.53125,-0.13552557,-0.87838161
7398.4375,-0.14377485,-0.94250232
7402.34375,-0.15917248,-0.94135404
7406.25,-0.13888995,-0.80627382
7410.15625,-0.06723467,-0.47080410
7414.0625,0.01376705,0.09807435
7417.96875,0.14761969,0.88426983
7421.875,0.29436845,1.82103610
7425.78125,0.47426715,2.80193090
7429.6875,0.60344398,3.70342040
7433.59375,0.73136461,4.40863609
7437.5,0.78090358,4.82112265
7441.40625,0.81770974,4.87336636
7445.3125,0.74211967,4.54278469
7449.21875,0.65071863,3.87162614
7453.125,0.47742951,2.96940255
7457.03125,0.33743772,1.98501468
7460.9375,0.17078774,1.06129444
7464.84375,0.04148052,0.29568478
7468.75,-0.05188647,-0.27665201
7472.65625,-0.07474817,-0.66995668
7476.5625,-0.15284035,-0.91450745
7480.46875,-0.18652260,-1.03351569
7484.375,-0.15828022,-1.04755461
7488.28125,-0.15759967,-0.98614997
7492.1875,-0.15300570,-0.88555765
7496.09375,-0.10674262,-0.77714747
7500.0,-0.11354855,-0.67618692
7503.90625,-0.09274009,-0.57891440
7507.8125,-0.08296789,-0.47451887
7511.71875,-0.04908730,-0.36285377
7515.625,-0.04500604,-0.25991046
7519.53125,-0.02569709,-0.18742992
7523.4375,-0.00371436,-0.15663639
7527.34375,-0.04059512,-0.15888596
7531.25,-0.02759342,-0.17326067
7535.15625,-0.02654490,-0.18513241
7539.0625,-0.01723480,-0.19493657
7542.96875,-0.03365347,-0.20971781
7546.875,-0.04238357,-0.23150340
7550.78125,-0.02746513,-0.25399062
7554.6875,-0.04488554,-0.26629165
7558.59375,-0.04067831,-0.26072204
7562.5,-0.03153257,-0.24048395
7566.40625,-0.03881224,-0.21920179
7570.3125,-0.02317781,-0.21089000
7574.21875,-0.02621612,-0.21934234
7578.125,-0.04711723,-0.23638040
7582.03125,-0.03102625,-0.24945074
7585.9375,-0.03159562,-0.24941568
7589.84375,-0.04126097,-0.23295547
7593.75,-0.03015135,-0.20407477
7597.65625,-0.01957507,-0.17473179
7601.5625,-0.02010756,-0.15824856
7605.46875,-0.01628145,-0.15925822
7609.375,-0.03330826,-0.17172268
7613.28125,-0.02671479,-0.18620405
7617.1875,-0.01492520,-0.19586140
7621.09375,-0.03517829,-0.19654620
7625.0,-0.03095073,-0.18749446
7628.90625,-0.00766048,-0.17289376
7632.8125,-0.03122963,-0.15819401
7636.71875,-0.02636452,-0.14673050
7640.625,-0.00035049,-0.14242940
7644.53125,-0.02541586,-0.14937533
7648.4375,-0.01989145,-0.16552269
7652.34375,-0.03434862,-0.18261252
7656.25,-0.01985553,-0.19418535
7660.15625,-0.02023855,-0.19866297
7664.0625,-0.02611164,-0.19287594
7667.96875,-0.02964233,-0.16807595
7671.875,-0.00921516,-0.11745321
7675.78125,-0.00458707,-0.04689323
7679.6875,0.00966908,0.02427187
7683.59375,0.02874708,0.07514214
7687.5,0.01887490,0.09860542
7691.40625,0.02738007,0.10644312
7695.3125,0.01677594,0.11816670
7699.21875,0.02690605,0.14303879
7703.125,0.04235766,0.17275937
7707.03125,0.05390038,0.19286461
7710.9375,0.02091481,0.19927086
7714.84375,0.03970375,0.19942653
7718.75,0.04878239,0.19942446
7722.65625,0.03064435,0.19547294
7726.5625,0.04899092,0.17741965
7730.46875,0.02079703,0.13823932
7734.375,0.02096061,0.08113725
7738.28125,0.02096991,0.01892052
7742.1875,-0.00538091,-0.03375547
7746.09375,-0.00581417,-0.07028076
7750.0,-0.00630467,-0.09741703
7753.90625,-0.01661237,-0.13084728
7757.8125,-0.00984116,-0.18334179
7761.71875,-0.03823846,-0.25406691
7765.625,-0.04337170,-0.32695484
7769.53125,-0.05906167,-0.38113287
7773.4375,-0.06459615,-0.40734676
7777.34375,-0.05221653,-0.41586542
7781.25,-0.05429586,-0.42560536
7785.15625,-0.06525161,-0.44389495
7789.0625,-0.06565998,-0.45935830
7792.96875,-0.07662524,-0.45633754
7796.875,-0.06567311,-0.43416187
7800.78125,-0.04255216,-0.40789717
7804.6875,-0.03925797,-0.38836828
7808.59375,-0.08076788,-0.36785057
7812.5,-0.03980271,-0.33137533
7816.40625,-0.01973055,-0.27510041
7820.3125,-0.03859445,-0.20759580
7824.21875,-0.00848191,-0.14117546
7828.125,0.00847266,-0.08546314
7832.03125,-0.01301422,-0.04196257
7835.9375,0.01295595,-0.00374473
7839.84375,0.02464469,0.03708604
7843.75,0.02721328,0.08387071
7847.65625,0.01519635,0.13464203
7851.5625,0.04768347,0.18139665
7855.46875,0.06140982,0.21393894
7859.375,0.04034882,0.22924049
7863.28125,0.03891564,0.23321545
7867.1875,0.06442197,0.23243494
7871.09375,0.04192617,0.22935344
7875.0,0.04939017,0.22384416
7878.90625,0.05238120,0.21344395
7882.8125,0.03466622,0.19272520
7886.71875,0.04000061,0.15529503
7890.625,0.03587341,0.09839815
7894.53125,0.02060078,0.02819694
7898.4375,-0.00995231,-0.04142791
7902.34375,-0.00184414,-0.09971315
7906.25,0.00437504,-0.14654104
7910.15625,-0.02426281,-0.18697317
7914.0625,-0.03343628,-0.22496395
7917.96875,-0.02320548,-0.26692620
7921.875,-0.03400788,-0.32597530
7925.78125,-0.06980165,-0.41914383
7929.6875,-0.06962701,-0.56085163
7933.59375,-0.10494755,-0.75280285
7937.5,-0.15740982,-0.97230250
7941.40625,-0.16137025,-1.16823447
7945.3125,-0.20443167,-1.26612365
7949.21875,-0.17453684,-1.17690527
7953.125,-0.10885350,-0.81197464
7957.03125,-0.00759378,-0.11356247
7960.9375,0.14284013,0.89757526
7964.84375,0.33964905,2.07998490
7968.75,0.55947059,3.17990804
7972.65625,0.65555674,3.91154480
7976.5625,0.70853472,4.07211351
7980.46875,0.61399949,3.62609625
7984.375,0.45070297,2.71371150
7988.28125,0.25991991,1.58162928
7992.1875,0.10503037,0.47857967
7996.09375,-0.06992004,-0.42505315
8000.0,-0.15158159,-1.06259346
8003.90625,-0.21525811,-1.44796288
8007.8125,-0.23931839,-1.63050401
8011.71875,-0.27268404,-1.66007030
8015.625,-0.23875363,-1.57910788
8019.53125,-0.21547820,-1.42820168
8023.4375,-0.18948907,-1.24434578
8027.34375,-0.13989915,-1.05104399
8031.25,-0.13463886,-0.85376984
8035.15625,-0.09670045,-0.65056801
8039.0625,-0.05663948,-0.45036218
8042.96875,-0.00991737,-0.27699760
8046.875,-0.01304536,-0.15149558
8050.78125,-0.00053995,-0.07385645
8054.6875,0.02379056,-0.02441200
8058.59375,0.01916612,0.01989633
8062.5,0.01703942,0.06881091
8066.40625,0.05120141,0.11349442
8070.3125,0.04176832,0.13869369
8074.21875,0.04234073,0.14038976
8078.125,0.03565311,0.12915206
8082.03125,0.05017816,0.12051816
8085.9375,0.02882204,0.12713665
8089.84375,0.04735539,0.15402038
8093.75,0.05182356,0.19271709
8097.65625,0.05929310,0.22171159
8101.5625,0.05978593,0.21958674
8105.46875,0.04599540,0.18152142
8109.375,0.04962194,0.12348743
8113.28125,0.02428562,0.06957276
8117.1875,0.02174161,0.03206467
8121.09375,0.02023399,0.00044857
8125.0,0.02345212,-0.04913542
8128.90625,0.00846752,-0.12982471
8132.8125,-0.02519337,-0.22875406
8136.71875,-0.04259599,-0.31754515
8140.625,-0.02264752,-0.37613428
8144.53125,-0.04777281,-0.40399823
8148.4375,-0.05333477,-0.41398659
8152.34375,-0.04078265,-0.42218354
8156.25,-0.05030995,-0.43955603
8160.15625,-0.03945591,-0.46478686
8164.0625,-0.06694003,-0.48398051
8167.96875,-0.06732307,-0.48245081
8171.875,-0.04981250,-0.46015653
8175.78125,-0.03509830,-0.43281853
8179.6875,-0.03231987,-0.41435784
8183.59375,-0.06154228,-0.40121996
8187.5,-0.04524126,-0.37868559
8191.40625,-0.02169482,-0.33913615
8195.3125,-0.01058133,-0.28685987
8199.21875,-0.01647878,-0.22726211
8203.125,-0.01328271,-0.16176581
8207.03125,-0.00044908,-0.09655935
8210.9375,0.03899885,-0.04647420
8214.84375,0.03475125,-0.01946199
8218.75,0.00684606,-0.00114124
8222.65625,0.01681778,0.03290870
8226.5625,0.05881533,0.08951676
8230.46875,0.04625460,0.15172052
8234.375,0.06691304,0.19864663
8238.28125,0.06073088,0.22335002
8242.1875,0.05653897,0.23113112
8246.09375,0.07085413,0.22694480
8250.0,0.05173094,0.20932926
8253.90625,0.07173238,0.17690159
8257.8125,0.04708299,0.13717543
8261.71875,0.04113907,0.10438607
8265.625,0.03461488,0.08673563
8269.53125,0.04286748,0.07801612
8273.4375,0.05001558,0.06364600
8277.34375,0.02676045,0.03241535
8281.25,0.02889658,-0.01917021
8285.15625,0.00115711,-0.08833949
8289.0625,0.02075305,-0.16416807
8292.96875,-0.01242959,-0.22539386
8296.875,-0.02191882,-0.25027660
8300.78125,-0.00403932,-0.23549376
8304.6875,-0.00761368,-0.20288470
8308.59375,-0.00146689,-0.18466364
8312.5,0.01532425,-0.20116739
8316.40625,-0.02788458,-0.24860895
8320.3125,-0.00994750,-0.30361879
8324.21875,-0.03457055,-0.33910468
8328.125,-0.01789919,-0.33982432
8332.03125,-0.03845657,-0.31049871
8335.9375,0.00715818,-0.27248758
8339.84375,-0.00949247,-0.24747767
8343.75,-0.00985819,-0.24037708
8347.65625,-0.01731512,-0.23953173
8351.5625,-0.00392929,-0.23245536
8355.46875,-0.00563465,-0.21773787
8359.375,0.01096808,-0.20245118
8363.28125,-0.00209369,-0.19178309
8367.1875,-0.01047042,-0.18373851
8371.09375,0.01152280,-0.17352313
8375.0,0.00741996,-0.16037424
8378.90625,0.00481184,-0.14930467
8382.8125,0.02090441,-0.14684303
8386.71875,-0.00461341,-0.15430757
8390.625,0.00196670,-0.16637976
8394.53125,0.01259584,-0.17702480
8398.4375,0.01173103,-0.18211725
8402.34375,0.00074285,-0.17511097
8406.25,-0.00409525,-0.14850508
8410.15625,0.02236122,-0.10522626
8414.0625,0.02495790,-0.06343142
8417.96875,0.04181239,-0.04293920
8421.875,0.01601224,-0.04627949
8425.78125,0.02566445,-0.05582521
8429.6875,0.02325237,-0.04946904
8433.59375,0.03393793,-0.01782631
8437.5,0.04186577,0.03104690
8441.40625,0.04847142,0.07892304
8445.3125,0.05673619,0.10924010
8449.21875,0.05220190,0.11667490
8453.125,0.05030096,0.10940315
8457.03125,0.06263737,0.10309913
8460.9375,0.04641388,0.11099596
8464.84375,0.06213957,0.13574353
8468.75,0.05600076,0.16734385
8472.65625,0.07427783,0.18836623
8476.5625,0.06705239,0.18293534
8480.46875,0.06548315,0.14469682
8484.375,0.04899627,0.08113482
8488.28125,0.03277475,0.01133018
8492.1875,0.02994382,-0.04490218
8496.09375,0.02589092,-0.08015380
8500.0,0.02648881,-0.10242690
8503.90625,0.01491016,-0.12510267
8507.8125,0.00790683,-0.15584362
8511.71875,0.00877346,-0.19525485
8515.625,0.00138176,-0.24172254
8519.53125,-0.01052839,-0.29380816
8523.4375,-0.02447144,-0.34943956
8527.34375,-0.01814269,-0.40503246
8531.25,-0.04380691,-0.45538494
8535.15625,-0.03935594,-0.49546009
8539.0625,-0.05029638,-0.52396208
8542.96875,-0.04129429,-0.54443103
8546.875,-0.06564636,-0.56138778
8550.78125,-0.04254653,-0.57412112
8554.6875,-0.05538192,-0.57272089
8558.59375,-0.05606093,-0.54269725
8562.5,-0.03763386,-0.47872832
8566.40625,-0.02132784,-0.39386463
8570.3125,-0.01969284,-0.31284034
8574.21875,0.00467581,-0.25675884
8578.125,0.01460013,-0.23107938
8582.03125,-0.00292929,-0.22257636
8585.9375,-0.00461894,-0.21008480
8589.84375,0.00603846,-0.18506679
8593.75,0.03228157,-0.16307986
8597.65625,0.00247603,-0.17439897
8601.5625,-0.00233051,-0.24376807
8605.46875,-0.00711732,-0.37194327
8609.375,-0.05277504,-0.52316326
8613.28125,-0.06146498,-0.62373370
8617.1875,-0.04503619,-0.57264781
8621.09375,0.00272990,-0.25671676
8625.0,0.11409117,0.42685351
8628.90625,0.28171942,1.52729356
8632.8125,0.51810908,2.98279858
8636.71875,0.78952020,4.58454990
8640.625,1.02492249,6.00154591
8644.53125,1.19507217,6.87633848
8648.4375,1.19642031,6.95753431
8652.34375,1.05514586,6.20326090
8656.25,0.84978384,4.79941654
8660.15625,0.52723658,3.08403444
8664.0625,0.26042873,1.41649866
8667.96875,0.04546322,0.05557816
8671.875,-0.10149414,-0.89547282
8675.78125,-0.18023059,-1.46295691
8679.6875,-0.23369145,-1.73437107
8683.59375,-0.26939598,-1.80107653
8687.5,-0.24501416,-1.73727238
8691.40625,-0.20668367,-1.60093343
8695.3125,-0.19383167,-1.43306136
8699.21875,-0.16126388,-1.25368059
8703.125,-0.13207920,-1.06571090
8707.03125,-0.11423245,-0.86862469
8710.9375,-0.04913413,-0.67225802
8714.84375,-0.04661523,-0.49864239
8718.75,-0.01005194,-0.37019303
8722.65625,-0.01079450,-0.29614463
8726.5625,0.00541621,-0.26798883
8730.46875,0.00055132,-0.26391649
8734.375,0.00495086,-0.25835201
8738.28125,-0.01507345,-0.23518473
8742.1875,0.02586438,-0.19851898
8746.09375,0.02620855,-0.16751356
8750.0,0.00974332,-0.15614928
8753.90625,0.01724674,-0.16039279
8757.8125,0.01905417,-0.16563196
8761.71875,0.01712260,-0.16183490
8765.625,0.01724399,-0.15029639
8769.53125,0.02837783,-0.13871142
8773.4375,0.01664322,-0.13231005
8777.34375,0.02576387,-0.13074082
8781.25,0.03098786,-0.13069013
8785.15625,0.01155665,-0.12792630
8789.0625,0.02911427,-0.11919248
8792.96875,0.02708129,-0.10604342
8796.875,0.03355971,-0.09549966
8800.78125,0.02765017,-0.09416226
8804.6875,0.02212171,-0.10113258
8808.59375,0.04460698,-0.10620076
8812.5,0.01822714,-0.09611680
8816.40625,0.01663156,-0.06779407
8820.3125,0.05917362,-0.03575940
8824.21875,0.04995120,-0.01886706
8828.125,0.03225899,-0.01915546
8832.03125,0.03541919,-0.02170535
8835.9375,0.04948927,-0.01396338
8839.84375,0.03471444,0.00204806
8843.75,0.06986859,0.01505968
8847.65625,0.03321084,0.01610204
8851.5625,0.04189133,0.00324578
8855.46875,0.04701526,-0.02093433
8859.375,0.04987437,-0.04987041
8863.28125,0.02183938,-0.07233608
8867.1875,0.01801128,-0.08103790
8871.09375,0.04376988,-0.08305549
8875.0,0.04531983,-0.09255623
8878.90625,0.01899357,-0.11312972
8882.8125,0.00425841,-0.13833404
8886.71875,0.02266408,-0.16988671
8890.625,0.02548811,-0.22117722
8894.53125,-0.00240690,-0.29751042
8898.4375,-0.03358280,-0.38359216
8902.34375,-0.02823203,-0.45631760
8906.25,-0.02652697,-0.50238514
8910.15625,-0.05062740,-0.52086073
8914.0625,-0.03241912,-0.51755422
8917.96875,-0.03996262,-0.50096041
8921.875,-0.03099078,-0.47863677
8925.78125,-0.03580818,-0.45493183
8929.6875,-0.01878338,-0.43213397
8933.59375,-0.01633785,-0.41133487
8937.5,-0.03916784,-0.39243659
8941.40625,-0.00464766,-0.37610781
8945.3125,-0.00978250,-0.36262819
8949.21875,-0.00945085,-0.34493771
8953.125,-0.01279565,-0.30832863
8957.03125,-0.00434043,-0.24466120
8960.9375,0.02192851,-0.16572243
8964.84375,0.04591325,-0.09555729
8968.75,0.03187135,-0.04709538
8972.65625,0.03793228,-0.01131374
8976.5625,0.03460694,0.02790263
8980.46875,0.08261362,0.07487062
8984.375,0.05518781,0.12287697
8988.28125,0.07026044,0.16631456
8992.1875,0.07802792,0.20376374
8996.09375,0.08328913,0.23228683
9000.0,0.08489005,0.24560465
9003.90625,0.09228241,0.23967014
9007.8125,0.07038336,0.21816403
9011.71875,0.07506810,0.18948936
9015.625,0.07644688,0.15817787
9019.53125,0.06445577,0.12216397
9023.4375,0.05016286,0.07772655
9027.34375,0.05287268,0.02400578
9031.25,0.04338493,-0.03573001
9035.15625,0.02340443,-0.09452554
9039.0625,0.01998211,-0.14489456
9042.96875,0.01273268,-0.18363951
9046.875,0.00651162,-0.21351248
9050.78125,0.02315743,-0.23963030
9054.6875,-0.02414626,-0.26522630
9058.59375,0.00737856,-0.29245287
9062.5,-0.01333586,-0.32453358
9066.40625,-0.00706828,-0.36141205
9070.3125,-0.01925758,-0.39326456
9074.21875,-0.03812994,-0.40441778
9078.125,-0.01413559,-0.38836840
9082.03125,-0.01916211,-0.35760611
9085.9375,0.00818395,-0.33474264
9089.84375,-0.04104172,-0.33359924
9093.75,0.01527668,-0.34866849
9097.65625,-0.02697892,-0.35861072
9101.5625,-0.01942424,-0.34034556
9105.46875,-0.00516079,-0.28712443
9109.375,0.00959085,-0.21573417
9113.28125,0.02221956,-0.15422003
9117.1875,0.02600329,-0.12218559
9121.09375,0.02007267,-0.12038191
9125.0,0.01918011,-0.13474166
9128.90625,0.00390808,-0.15005679
9132.8125,0.03293726,-0.16103029
9136.71875,0.02123409,-0.16918695
9140.625,0.00075704,-0.17303778
9144.53125,0.00063365,-0.16991790
9148.4375,0.04008970,-0.16532324
9152.34375,0.00455255,-0.16965887
9156.25,0.01523121,-0.18580234
9160.15625,-0.00352780,-0.20734797
9164.0625,0.01608614,-0.22826971
9167.96875,-0.00826697,-0.25003046
9171.875,-0.00300779,-0.28099641
9175.78125,-0.01368109,-0.33084843
9179.6875,-0.01580207,-0.40199426
9183.59375,-0.04311761,-0.48301107
9187.5,-0.06113340,-0.55050284
9191.40625,-0.03474068,-0.57585061
9195.3125,-0.05908808,-0.52893585
9199.21875,-0.01741756,-0.38121274
9203.125,0.02364019,-0.11182836
9207.03125,0.08389224,0.28850707
9210.9375,0.17043522,0.81762600
9214.84375,0.29749888,1.46074879
9218.75,0.38530684,2.18515849
9222.65625,0.52010590,2.93044901
9226.5625,0.61196685,3.60155296
9230.46875,0.73855311,4.08241749
9234.375,0.73723346,4.27625847
9238.28125,0.72670567,4.14741516
9242.1875,0.64481699,3.73245525
9246.09375,0.54881901,3.11542416
9250.0,0.42632779,2.38819718
9253.90625,0.30070320,1.62112129
9257.8125,0.19318266,0.85926861
9261.71875,0.06435694,0.14017951
9265.625,-0.04753176,-0.49094066
9269.53125,-0.12908614,-0.98858368
9273.4375,-0.18311723,-1.32859969
9277.34375,-0.20282352,-1.51987028
9281.25,-0.22846760,-1.59615028
9285.15625,-0.21962881,-1.59803450
9289.0625,-0.21911263,-1.55777168
9292.96875,-0.21342099,-1.49304676
9296.875,-0.18871009,-1.40958214
9300.78125,-0.17332320,-1.30657911
9304.6875,-0.15904431,-1.18053246
9308.59375,-0.14195377,-1.03073764
9312.5,-0.10381695,-0.86682415
9316.40625,-0.06745332,-0.70866609
9320.3125,-0.06805028,-0.57448345
9324.21875,-0.02710129,-0.46812358
9328.125,-0.03819261,-0.37832001
9332.03125,-0.01849096,-0.29104444
9335.9375,0.01713233,-0.20246668
9339.84375,0.01377155,-0.11822338
9343.75,0.02464426,-0.04268588
9347.65625,0.04340739,0.02606407
9351.5625,0.04914781,0.09196896
9355.46875,0.05648290,0.15482056
9359.375,0.07040695,0.20770170
9363.28125,0.08421435,0.24110521
9367.1875,0.06166209,0.25156087
9371.09375,0.09233335,0.24666469
9375.0,0.05931723,0.24178281
9378.90625,0.08180760,0.25007802
9382.8125,0.07377795,0.27179596
9386.71875,0.08209166,0.29203147
9390.625,0.08963436,0.29116556
9394.53125,0.07528581,0.25924629
9398.4375,0.05980340,0.19975016
9402.34375,0.04989624,0.12065360
9406.25,0.05041010,0.02838458
9410.15625,0.01886842,-0.06587160
9414.0625,0.00715387,-0.14113462
9417.96875,0.00759174,-0.17762733
9421.875,-0.01345602,-0.17641807
9425.78125,0.01111002,-0.16680457
9429.6875,0.01755135,-0.18783841
9433.59375,-0.01223623,-0.25498196
9437.5,-0.03147882,-0.34408337
9441.40625,-0.03098645,-0.40968633
9445.3125,-0.04791684,-0.41951343
9449.21875,-0.03457108,-0.37706658
9453.125,-0.00764967,-0.31767020
9457.03125,-0.01405074,-0.28104246
9460.9375,-0.01684292,-0.28213659
9464.84375,-0.01241489,-0.30381802
9468.75,-0.03381855,-0.31433925
9472.65625,-0.02369703,-0.29398900
9476.5625,-0.00088799,-0.24981247
9480.46875,-0.00161456,-0.20583925
9484.375,0.00633893,-0.17937818
9488.28125,-0.00379465,-0.16821836
9492.1875,-0.00979333,-0.15929182
9496.09375,0.02234589,-0.14429390
9500.0,0.00879078,-0.12362827
9503.90625,-0.00116962,-0.10031725
9507.8125,0.03613900,-0.07609054
9511.71875,0.00833074,-0.05161643
9515.625,0.01501101,-0.02920514
9519.53125,0.04030197,-0.01595370
9523.4375,0.02777789,-0.01907327
9527.34375,0.01496193,-0.03582539
9531.25,0.02016431,-0.05404641
9535.15625,0.01084499,-0.06500886
9539.0625,0.01646956,-0.07185736
9542.96875,0.03547304,-0.08254062
9546.875,-0.01234327,-0.09663143
9550.78125,0.01282294,-0.10330632
9554.6875,0.03132987,-0.08986548
9558.59375,-0.00068763,-0.04923448
9562.5,0.02201791,0.01254142
9566.40625,0.05174698,0.07188701
9570.3125,0.05404861,0.10148778
9574.21875,0.02531230,0.09309758
9578.125,0.03272953,0.06068309
9582.03125,0.04422319,0.02459598
9585.9375,0.01843508,0.00075741
9589.84375,0.02417455,-0.00093803
9593.75,0.02356774,0.02059589
9597.65625,0.04586961,0.05542029
9601.5625,0.02633743,0.08705129
9605.46875,0.05583693,0.10074267
9609.375,0.03251979,0.09027661
9613.28125,0.02779080,0.05998139
9617.1875,0.04107909,0.02130740
9621.09375,0.01314142,-0.01233746
9625.0,0.02171118,-0.03049933
9628.90625,0.01903852,-0.03130529
9632.8125,0.01079946,-0.02531647
9636.71875,0.02519105,-0.03306276
9640.625,0.00989710,-0.07394808
9644.53125,0.00961297,-0.15023270
9648.4375,-0.01847991,-0.23927140
9652.34375,-0.04259160,-0.30723852
9656.25,-0.03619836,-0.33776146
9660.15625,-0.02539270,-0.34684137
9664.0625,-0.02599414,-0.36513504
9667.96875,-0.04978748,-0.40661439
9671.875,-0.06222267,-0.45842442
9675.78125,-0.05598679,-0.49850196
9679.6875,-0.07113130,-0.51653475
9683.59375,-0.05035323,-0.51670814
9687.5,-0.06017129,-0.50410146
9691.40625,-0.06201962,-0.47372243
9695.3125,-0.05962706,-0.41668555
9699.21875,-0.01398231,-0.33438203
9703.125,-0.03006666,-0.24155708
9707.03125,-0.00638771,-0.15817557
9710.9375,0.00481159,-0.10119026
9714.84375,0.01265827,-0.07653518
9718.75,0.01595703,-0.07091479
9722.65625,-0.00264901,-0.05478377
9726.5625,0.01977520,-0.00254796
9730.46875,0.02584004,0.08575300
9734.375,0.06212357,0.18392603
9738.28125,0.06734600,0.26222470
9742.1875,0.06725466,0.30986616
9746.09375,0.06230190,0.33509344
9750.0,0.08203646,0.34775177
9753.90625,0.07521474,0.34781930
9757.8125,0.07817491,0.32955307
9761.71875,0.06034316,0.28983125
9765.625,0.05501149,0.23034211
9769.53125,0.04499023,0.15646379
9773.4375,0.03631524,0.07796028
9777.34375,0.01526495,0.00802825
9781.25,0.00858828,-0.04489859
9785.15625,-0.00759755,-0.08778674
9789.0625,0.00528166,-0.14282942
9792.96875,-0.01697542,-0.23114805
9796.875,-0.03704642,-0.35380486
9800.78125,-0.07838449,-0.49000570
9804.6875,-0.08646488,-0.61347312
9808.59375,-0.08606057,-0.70584953
9812.5,-0.10602793,-0.75349379
9816.40625,-0.11630075,-0.74087614
9820.3125,-0.09142373,-0.65596688
9824.21875,-0.06418876,-0.49875575
9828.125,-0.02291340,-0.27749836
9832.03125,0.01476602,0.00236453
9835.9375,0.06015928,0.34038460
9839.84375,0.14402086,0.73240006
9843.75,0.21514869,1.16345394
9847.65625,0.25482780,1.60664356
9851.5625,0.36150596,2.02259111
9855.46875,0.40518421,2.36280060
9859.375,0.43021077,2.58083153
9863.28125,0.45604220,2.64347482
9867.1875,0.42434460,2.53743649
9871.09375,0.39263302,2.27450323
9875.0,0.33067638,1.89201081
9878.90625,0.23963417,1.44195855
9882.8125,0.17263387,0.97184157
9886.71875,0.09814312,0.51149386
9890.625,0.02434490,0.07674181
9894.53125,-0.01988452,-0.31615469
9898.4375,-0.10850264,-0.64193529
9902.34375,-0.12551382,-0.87478679
9906.25,-0.17090224,-1.00787699
9910.15625,-0.14654700,-1.06342685
9914.0625,-0.16134942,-1.07849276
9917.96875,-0.15609834,-1.07690179
9921.875,-0.17932135,-1.05530477
9925.78125,-0.14430685,-0.99594671
9929.6875,-0.12679426,-0.88922781
9933.59375,-0.13207769,-0.74647105
9937.5,-0.07761005,-0.59886521
9941.40625,-0.04900284,-0.48137417
9945.3125,-0.06857380,-0.40766463
9949.21875,-0.04092333,-0.35940635
9953.125,-0.05035171,-0.30334431
9957.03125,-0.02565939,-0.21989846
9960.9375,-0.00010682,-0.11843134
9964.84375,0.00088985,-0.02906292
9968.75,0.02003138,0.01978606
9972.65625,0.00719216,0.02045787
9976.5625,0.02587369,-0.00898169
9980.46875,-0.01014075,-0.03503080
9984.375,0.00275291,-0.02959139
9988.28125,0.01521222,0.01102639
9992.1875,0.01334263,0.06304191
9996.09375,0.03608363,0.09061586
10000.0,0.02704634,0.07013572
10003.90625,0.00597262,0.00737632
10007.8125,-0.00699888,-0.06773232
10011.71875,-0.01445758,-0.12622018
10015.625,-0.01471276,-0.16166635
10019.53125,-0.02009489,-0.18886662
10023.4375,-0.01948242,-0.22400904
10027.34375,-0.03762005,-0.26770857
10031.25,-0.05229925,-0.30768046
10035.15625,-0.04504918,-0.33554697
10039.0625,-0.04107510,-0.35561895
10042.96875,-0.05464746,-0.37556180
10046.875,-0.05218310,-0.39365587
10050.78125,-0.06958871,-0.39961603
10054.6875,-0.04851979,-0.38661757
10058.59375,-0.05500723,-0.35955510
10062.5,-0.03506825,-0.33102646
10066.40625,-0.05426235,-0.31080878
10070.3125,-0.03361822,-0.29986519
10074.21875,-0.05026605,-0.29253718
10078.125,-0.02798474,-0.28144601
10082.03125,-0.03517548,-0.25919273
10085.9375,-0.03612801,-0.21860088
10089.84375,-0.01538766,-0.15677443
10093.75,-0.00982079,-0.08062721
10097.65625,0.01139534,-0.00531055
10101.5625,0.02200174,0.05679990
10105.46875,0.02344451,0.10642441
10109.375,0.01388548,0.15331948
10113.28125,0.05191098,0.20147906
10117.1875,0.05924893,0.24489982
10121.09375,0.03799066,0.27857515
10125.0,0.05153638,0.30433902
10128.90625,0.07390612,0.32468900
10132.8125,0.05842213,0.33899552
10136.71875,0.05249839,0.34509784
10140.625,0.07435912,0.33887380
10144.53125,0.04985057,0.31460634
10148.4375,0.05305779,0.26951012
10152.34375,0.04281932,0.20750415
10156.25,0.02849817,0.13889022
10160.15625,0.01503966,0.07532611
10164.0625,0.00260821,0.02119724
10167.96875,0.00725718,-0.03062009
10171.875,-0.00689989,-0.09095471
10175.78125,-0.01527379,-0.16113085
10179.6875,-0.04481117,-0.23012897
10183.59375,-0.03958824,-0.28609231
10187.5,-0.05422366,-0.32776386
10191.40625,-0.03819957,-0.36150396
10195.3125,-0.06192447,-0.38853034
10199.21875,-0.06683142,-0.40045142
10203.125,-0.06672081,-0.39029077
10207.03125,-0.04668540,-0.36447012
10210.9375,-0.04864956,-0.33990899
10214.84375,-0.05126436,-0.33042926
10218.75,-0.04901143,-0.33694434
10222.65625,-0.05517447,-0.34729519
10226.5625,-0.05369307,-0.34338352
10230.46875,-0.04312234,-0.31143975
10234.375,-0.03621860,-0.24999730
10238.28125,-0.03380783,-0.17184453
10242.1875,-0.00236209,-0.09938467
10246.09375,-0.00861489,-0.05419264
10250.0,0.00088098,-0.04551116
10253.90625,-0.00689731,-0.06483824
10257.8125,-0.00750504,-0.08944164
10261.71875,-0.02174582,-0.09420746
10265.625,-0.01097482,-0.06769589
10269.53125,0.00991123,-0.01990752
10273.4375,0.01208950,0.02804239
10277.34375,0.01120852,0.06186558
10281.25,0.00678386,0.08041719
10285.15625,0.03330262,0.08886310
10289.0625,0.00683433,0.09065636
10292.96875,0.00992669,0.08354384
10296.875,0.03910014,0.06195204
10300.78125,-0.00596409,0.02711350
10304.6875,-0.00899843,-0.00802305
10308.59375,0.00715957,-0.02838477
10312.5,0.01463805,-0.02586490
10316.40625,-0.01903561,0.00123413
10320.3125,0.01432529,0.04616731
10324.21875,0.01589191,0.08878914
10328.125,0.02551703,0.10331280
10332.03125,0.02939739,0.07824286
10335.9375,-0.00768549,0.02828742
10339.84375,-0.00163760,-0.01573779
10343.75,-0.00629380,-0.02958418
10347.65625,0.01969400,-0.00939693
10351.5625,-0.01470991,0.02986715
10355.46875,0.02288399,0.06286336
10359.375,0.01984845,0.06677689
10363.28125,0.00317206,0.03733831
10367.1875,0.00522288,-0.00613669
10371.09375,-0.00499418,-0.03494745
10375.0,-0.00885475,-0.03263362
10378.90625,-0.00137764,-0.00792455
10382.8125,0.00543017,0.00904573
10386.71875,0.00660451,-0.01318169
10390.625,0.00027242,-0.08253590
10394.53125,-0.03674529,-0.17428726
10398.4375,-0.05529224,-0.24974996
10402.34375,-0.03259054,-0.28672257
10406.25,-0.03760558,-0.29158971
10410.15625,-0.06107072,-0.28890520
10414.0625,-0.04505030,-0.30769286
10417.96875,-0.04163603,-0.36959103
10421.875,-0.09004738,-0.47573388
10425.78125,-0.09846415,-0.60532254
10429.6875,-0.11319169,-0.73286170
10433.59375,-0.14658043,-0.84636861
10437.5,-0.14548378,-0.94928652
10441.40625,-0.18399595,-1.04628253
10445.3125,-0.16743840,-1.12070334
10449.21875,-0.16351686,-1.11402225
10453.125,-0.16328445,-0.92610240
10457.03125,-0.08573168,-0.45359275
10460.9375,0.05208921,0.34771562
10464.84375,0.24956053,1.42001128
10468.75,0.41479406,2.60599279
10472.65625,0.61308384,3.68698549
10476.5625,0.73382252,4.43995047
10480.46875,0.77416515,4.70160103
10484.375,0.73709202,4.41995525
10488.28125,0.61169946,3.67109323
10492.1875,0.41809273,2.63183951
10496.09375,0.24945013,1.51806843
10500.0,0.08195703,0.51663357
10503.90625,-0.04853584,-0.25822833
10507.8125,-0.10309637,-0.77126896
10511.71875,-0.18349469,-1.04580557
10515.625,-0.19181648,-1.13857019
10519.53125,-0.17420156,-1.11997473
10523.4375,-0.16127810,-1.05274189
10527.34375,-0.17100395,-0.97213835
10531.25,-0.13872181,-0.88449866
10535.15625,-0.12707411,-0.78326982
10539.0625,-0.11380402,-0.66502357
10542.96875,-0.08642854,-0.53734177
10546.875,-0.07211713,-0.41961348
10550.78125,-0.04043260,-0.33499619
10554.6875,-0.04674854,-0.29549086
10558.59375,-0.05830163,-0.29329228
10562.5,-0.04912941,-0.30862856
10566.40625,-0.04974359,-0.32468739
10570.3125,-0.04397834,-0.33341473
10574.21875,-0.06488686,-0.33272865
10578.125,-0.05696621,-0.32608443
10582.03125,-0.04349121,-0.32341895
10585.9375,-0.05184180,-0.33460075
10589.84375,-0.05703747,-0.35949767
10593.75,-0.07483059,-0.38713884
10597.65625,-0.04989585,-0.40317139
10601.5625,-0.06865185,-0.39581522
10605.46875,-0.06955488,-0.36089405
10609.375,-0.04408327,-0.30852830
10613.28125,-0.03714858,-0.26030025
10617.1875,-0.03188861,-0.23063661
10621.09375,-0.03285575,-0.21047255
10625.0,-0.04021712,-0.17491432
10628.90625,-0.01897158,-0.11068888
10632.8125,-0.00091977,-0.03505000
10636.71875,0.00569418,0.01573261
10640.625,0.01620139,0.01884048
10644.53125,-0.00998297,-0.01314575
10648.4375,-0.00562995,-0.04262518
10652.34375,-0.02186708,-0.04012697
10656.25,0.01509194,-0.00792895
10660.15625,0.00142625,0.02748778
10664.0625,0.01791465,0.04246831
10667.96875,-0.00108361,0.03382355
10671.875,-0.00300087,0.01436820
10675.78125,0.01266314,-0.00080257
10679.6875,0.00157095,-0.00175897
10683.59375,-0.01867845,0.01240132
10687.5,0.01474864,0.02877316
10691.40625,0.02645539,0.02799408
10695.3125,-0.00584211,0.00557763
10699.21875,-0.02062019,-0.02097816
10703.125,0.00730489,-0.03198797
10707.03125,-0.00714111,-0.02512565
10710.9375,0.00672417,-0.01299755
10714.84375,-0.00487114,-0.00907711
10718.75,-0.00190073,-0.01825634
10722.65625,-0.00636013,-0.03550732
10726.5625,-0.00263663,-0.04979793
10730.46875,-0.01085577,-0.05046194
10734.375,0.00165335,-0.03354036
10738.28125,-0.01473735,-0.00613796
10742.1875,0.00609505,0.01372195
10746.09375,0.01715301,0.00660892
10750.0,-0.00522517,-0.03139683
10753.90625,-0.01555118,-0.08164269
10757.8125,-0.03421253,-0.11863796
10761.71875,-0.01251936,-0.13352850
10765.625,-0.00825755,-0.13889593
10769.53125,-0.04036755,-0.15307568
10773.4375,-0.01617698,-0.18509704
10777.34375,-0.04657362,-0.23153204
10781.25,-0.03334819,-0.28039685
10785.15625,-0.06538244,-0.31918326
10789.0625,-0.05485612,-0.34516594
10792.96875,-0.04681833,-0.36788219
10796.875,-0.06853335,-0.39826646
10800.78125,-0.07360388,-0.43718097
10804.6875,-0.08086850,-0.47664750
10808.59375,-0.06919109,-0.50765902
10812.5,-0.09312478,-0.52374429
10816.40625,-0.08319081,-0.52246052
10820.3125,-0.08700783,-0.50910980
10824.21875,-0.08022131,-0.49762928
10828.125,-0.06561645,-0.50334865
10832.03125,-0.09546325,-0.53354460
10835.9375,-0.10579841,-0.58730561
10839.84375,-0.09976614,-0.66254675
10843.75,-0.11887552,-0.75402910
10847.65625,-0.13752203,-0.83860964
10851.5625,-0.12681636,-0.86342716
10855.46875,-0.14055960,-0.75126129
10859.375,-0.06334641,-0.42305586
10863.28125,0.03750291,0.17477441
10867.1875,0.17010283,1.05009091
10871.09375,0.35120186,2.15078449
10875.0,0.54431087,3.35486722
10878.90625,0.73560727,4.47749472
10882.8125,0.88521063,5.30815029
10886.71875,0.93149590,5.67085648
10890.625,0.91365439,5.48105431
10894.53125,0.77862459,4.77307844
10898.4375,0.61058998,3.68806362
10902.34375,0.39603701,2.42960620
10906.25,0.20205107,1.20520163
10910.15625,0.02185952,0.17258461
10914.0625,-0.10645744,-0.59357733
10917.96875,-0.16683744,-1.10118723
10921.875,-0.21191612,-1.40396237
10925.78125,-0.26128197,-1.55417490
10929.6875,-0.26558650,-1.58325100
10933.59375,-0.24544914,-1.51625443
10937.5,-0.22742271,-1.38917804
10941.40625,-0.19253580,-1.24527287
10945.3125,-0.18988951,-1.11757922
10949.21875,-0.15292729,-1.01626742
10953.125,-0.15332526,-0.92993873
10957.03125,-0.14784743,-0.83968997
10960.9375,-0.10728624,-0.73701006
10964.84375,-0.11174047,-0.63174659
10968.75,-0.07881948,-0.54354399
10972.65625,-0.06121992,-0.48389694
10976.5625,-0.09018559,-0.44487748
10980.46875,-0.06512976,-0.40734485
10984.375,-0.04515059,-0.36021560
10988.28125,-0.06051713,-0.30894005
10992.1875,-0.02965042,-0.26724756
10996.09375,-0.03859693,-0.24271946
11000.0,-0.02958480,-0.22759835
11003.90625,-0.03763517,-0.20374459
11007.8125,-0.02938320,-0.16025327
11011.71875,-0.01004176,-0.10620655
11015.625,-0.00129731,-0.06257152
11019.53125,0.00281768,-0.03999973
11023.4375,-0.00227771,-0.02692343
11027.34375,-0.01403381,-0.00314403
11031.25,0.00689038,0.03472592
11035.15625,0.04108167,0.06666660
11039.0625,0.00128627,0.06990142
11042.96875,0.00586022,0.03970329
11046.875,0.01184796,-0.01051800
11050.78125,-0.01135445,-0.05984757
11054.6875,-0.01434316,-0.08882252
11058.59375,0.00258577,-0.08656167
11062.5,-0.02291529,-0.05602426
11066.40625,0.00339267,-0.01536714
11070.3125,0.01911300,0.00937228
11074.21875,0.00486301,0.00202223
11078.125,-0.00908005,-0.03077132
11082.03125,-0.00753302,-0.06698210
11085.9375,-0.00502327,-0.08720122
11089.84375,-0.01076209,-0.08432553
11093.75,-0.01106838,-0.06302651
11097.65625,0.00497894,-0.03574461
11101.5625,0.00310994,-0.01653828
11105.46875,-0.00497568,-0.01423511
11109.375,0.01272719,-0.02888119
11113.28125,-0.01356366,-0.05242050
11117.1875,-0.00463758,-0.07350385
11121.09375,-0.01045833,-0.08516043
11125.0,-0.00700264,-0.08938215
11128.90625,-0.01354865,-0.09470572
11132.8125,-0.00908422,-0.10956649
11136.71875,-0.01326597,-0.13613091
11140.625,-0.03236241,-0.16906692
11144.53125,-0.01893302,-0.20044979
11148.4375,-0.03110491,-0.22549868
11152.34375,-0.04383318,-0.24527287
11156.25,-0.03438581,-0.26745522
11160.15625,-0.04101039,-0.30239975
11164.0625,-0.03711791,-0.35293731
11167.96875,-0.08849101,-0.41003844
11171.875,-0.06224398,-0.46305752
11175.78125,-0.06829714,-0.50909060
11179.6875,-0.08189566,-0.54602522
11183.59375,-0.08981188,-0.56340206
11187.5,-0.09713797,-0.54998565
11191.40625,-0.06014685,-0.50797230
11195.3125,-0.07646888,-0.45296535
11199.21875,-0.05001660,-0.40098304
11203.125,-0.06103324,-0.35924071
11207.03125,-0.04082964,-0.32741505
11210.9375,-0.04917220,-0.30271852
11214.84375,-0.03263886,-0.28134316
11218.75,-0.03406424,-0.25584856
11222.65625,-0.03229669,-0.21485136
11226.5625,-0.01582905,-0.14978817
11230.46875,-0.00428453,-0.06355371
11234.375,0.00964408,0.02846479
11238.28125,0.03292187,0.10696640
11242.1875,0.02954385,0.16010521
11246.09375,0.04325143,0.18923838
11250.0,0.04243418,0.20604825
11253.90625,0.03407140,0.22389168
11257.8125,0.05962614,0.24862476
11261.71875,0.04354466,0.27477041
11265.625,0.06879548,0.28962687
11269.53125,0.04290627,0.28178224
11273.4375,0.06337725,0.24819514
11277.34375,0.02599665,0.19550079
11281.25,0.03837249,0.13492866
11285.15625,0.02270266,0.07577747
11289.0625,0.01046700,0.02231536
11292.96875,0.00248591,-0.02725261
11296.875,-0.00576945,-0.08082172
11300.78125,-0.00932308,-0.14750078
11304.6875,-0.02620160,-0.22815949
11308.59375,-0.04033552,-0.31057587
11312.5,-0.05709707,-0.37664700
11316.40625,-0.06760003,-0.41697842
11320.3125,-0.05391079,-0.43841565
11324.21875,-0.05819739,-0.45500645
11328.125,-0.06389028,-0.47161984
11332.03125,-0.08353143,-0.48002410
11335.9375,-0.06078482,-0.47185916
11339.84375,-0.07170247,-0.45149404
11343.75,-0.04636706,-0.43378258
11347.65625,-0.06277576,-0.43081430
11351.5625,-0.06849830,-0.44219711
11355.46875,-0.05610777,-0.45623878
11359.375,-0.07075205,-0.45784980
11363.28125,-0.06319574,-0.43723521
11367.1875,-0.04694960,-0.39474878
11371.09375,-0.04119791,-0.33730540
11375.0,-0.03749360,-0.27085122
11378.90625,-0.02689413,-0.20027390
11382.8125,-0.00781377,-0.13574795
11386.71875,-0.00151917,-0.09176160
11390.625,0.01259015,-0.07442794
11394.53125,-0.01180935,-0.07155930
11398.4375,-0.00065414,-0.06123001
11402.34375,0.00336704,-0.03319544
11406.25,0.01477090,-0.00006967
11410.15625,0.02917387,0.01472640
11414.0625,0.00365764,-0.00048203
11417.96875,0.00609741,-0.03622459
11421.875,-0.00619918,-0.07284650
11425.78125,0.00746043,-0.09617542
11429.6875,-0.00215207,-0.10237189
11433.59375,-0.01388351,-0.09457821
11437.5,0.00888398,-0.08036233
11441.40625,-0.00416133,-0.06974120
11445.3125,0.01099478,-0.07079583
11449.21875,-0.00346517,-0.08595725
11453.125,-0.00948529,-0.11244968
11457.03125,-0.01004203,-0.14472358
11460.9375,-0.00839369,-0.17397904
11464.84375,-0.01022469,-0.18568471
11468.75,-0.02484657,-0.16404600
11472.65625,-0.00445935,-0.10637949
11476.5625,0.00596489,-0.03344781
11480.46875,0.03074601,0.01975857
11484.375,0.01803206,0.02775195
11488.28125,0.01398438,-0.00853286
11492.1875,0.00172766,-0.06542312
11496.09375,-0.01349019,-0.11518268
11500.0,0.00405906,-0.14319280
11503.90625,-0.01323167,-0.15228532
11507.8125,-0.01824736,-0.15685722
11511.71875,-0.00279167,-0.17376609
11515.625,-0.01362134,-0.21110797
11519.53125,-0.03576057,-0.26053479
11523.4375,-0.03392528,-0.30454531
11527.34375,-0.04702146,-0.33445495
11531.25,-0.02864062,-0.35833248
11535.15625,-0.05048698,-0.38938174
11539.0625,-0.05161183,-0.42956030
11542.96875,-0.07637565,-0.46764198
11546.875,-0.04082904,-0.49016106
11550.78125,-0.07576310,-0.48993921
11554.6875,-0.06456914,-0.46843874
11558.59375,-0.05117923,-0.43682906
11562.5,-0.05025953,-0.41265664
11566.40625,-0.04613729,-0.40893510
11570.3125,-0.04606825,-0.42287946
11574.21875,-0.05852784,-0.43540910
11578.125,-0.07191733,-0.42683893
11582.03125,-0.03895665,-0.39621723
11585.9375,-0.01484584,-0.35884088
11589.84375,-0.05335829,-0.32261673
11593.75,-0.03502920,-0.27815866
11597.65625,-0.01252037,-0.21682207
11601.5625,-0.00993455,-0.14797196
11605.46875,0.01581882,-0.09225758
11609.375,0.00257620,-0.06237230
11613.28125,0.00538928,-0.05347206
11617.1875,0.01939654,-0.04920860
11621.09375,0.00600401,-0.03424112
11625.0,0.01211802,-0.00523464
11628.90625,0.03498386,0.02393541
11632.8125,0.00925384,0.02823698
11636.71875,0.03286938,-0.01142615
11640.625,0.00866124,-0.09080482
11644.53125,-0.02933261,-0.17978582
11648.4375,-0.00832220,-0.23898326
11652.34375,-0.02019938,-0.23833171
11656.25,-0.02234828,-0.16043863
11660.15625,0.04500807,0.00894791
11664.0625,0.07124317,0.29229113
11667.96875,0.11852150,0.71954274
11671.875,0.23594093,1.30700195
11675.78125,0.35431358,2.03329802
11679.6875,0.49854475,2.83781528
11683.59375,0.61262327,3.63781786
11687.5,0.71934241,4.34233379
11691.40625,0.82649475,4.85902786
11695.3125,0.87481105,5.10822296
11699.21875,0.83196706,5.04367828
11703.125,0.78767687,4.66264582
11707.03125,0.68333232,4.00329065
11710.9375,0.54778647,3.14219117
11714.84375,0.36832759,2.18718624
11718.75,0.21904208,1.25188887
11722.65625,0.09865583,0.42249730
11726.5625,-0.02460195,-0.25800750
11730.46875,-0.10428234,-0.78294730
11734.375,-0.17451958,-1.16525793
11738.28125,-0.19861905,-1.42046320
11742.1875,-0.23944995,-1.55553663
11746.09375,-0.23821035,-1.57236314
11750.0,-0.22892302,-1.48394465
11753.90625,-0.19488868,-1.32467508
11757.8125,-0.15379278,-1.13968468
11761.71875,-0.13551845,-0.96169722
11765.625,-0.10734543,-0.79850757
11769.53125,-0.09862999,-0.64294976
11773.4375,-0.05294279,-0.49355665
11777.34375,-0.03421557,-0.36467654
11781.25,-0.02703289,-0.27788934
11785.15625,-0.00424469,-0.24345122
11789.0625,-0.02371040,-0.24653520
11792.96875,-0.02436780,-0.25164333
11796.875,-0.01090563,-0.22639740
11800.78125,-0.01154584,-0.16613263
11804.6875,0.00549533,-0.09754524
11808.59375,0.03099894,-0.05774651
11812.5,0.00021675,-0.06547330
11816.40625,0.01843692,-0.10767643
11820.3125,-0.01042898,-0.15087499
11824.21875,-0.02030025,-0.16683297
11828.125,0.01580397,-0.15201382
11832.03125,0.00597956,-0.12453949
11835.9375,-0.00612233,-0.10443589
11839.84375,0.02379123,-0.09881805
11843.75,-0.00457491,-0.10165050
11847.65625,0.00717324,-0.10285288
11851.5625,0.00687063,-0.09812582
11855.46875,0.01449904,-0.09046642
11859.375,0.00622807,-0.08347114
11863.28125,0.01478120,-0.07679559
11867.1875,0.01308632,-0.06814523
11871.09375,0.00987341,-0.05771792
11875.0,0.00895913,-0.05238525
11878.90625,0.02240698,-0.06536607
11882.8125,0.02201850,-0.10538311
11886.71875,-0.02286814,-0.16348833
11890.625,-0.01156786,-0.21580648
11894.53125,-0.00521954,-0.24087232
11898.4375,-0.01441352,-0.23263270
11902.34375,-0.01947271,-0.20306155
11906.25,-0.00296607,-0.17904288
11910.15625,0.00036056,-0.19065236
11914.0625,-0.01320681,-0.25169149
11917.96875,-0.03412984,-0.34755686
11921.875,-0.04650788,-0.44242042
11925.78125,-0.06600443,-0.50197214
11929.6875,-0.07539136,-0.51737911
11933.59375,-0.03340198,-0.50998855
11937.5,-0.05300611,-0.50650942
11941.40625,-0.06777827,-0.50936389
11945.3125,-0.06460538,-0.49920392
11949.21875,-0.05847780,-0.46456391
11953.125,-0.02369757,-0.41724703
11957.03125,-0.04216226,-0.37617764
11960.9375,-0.03440788,-0.34587774
11964.84375,-0.01758360,-0.31549880
11968.75,-0.03781306,-0.27317658
11972.65625,-0.00471677,-0.21722913
11976.5625,0.01323784,-0.15474345
11980.46875,0.00315031,-0.09268527
11984.375,0.00891708,-0.03493760
11988.28125,0.03927811,0.01405488
11992.1875,0.03133264,0.05171712
11996.09375,0.04503422,0.08440473
12000.0,0.04237677,0.12423272
12003.90625,0.04301360,0.17459171
12007.8125,0.06034549,0.22088690
12011.71875,0.08891754,0.24114215
12015.625,0.05787751,0.22896746
12019.53125,0.04521332,0.20154932
12023.4375,0.05600408,0.18147980
12027.34375,0.05875270,0.17594591
12031.25,0.06368387,0.17618734
12035.15625,0.04333704,0.16916201
12039.0625,0.04204440,0.14310287
12042.96875,0.05139560,0.08800374
12046.875,0.03930324,0.00220790
12050.78125,-0.01378252,-0.10033204
12054.6875,0.00460370,-0.19617876
12058.59375,-0.02259896,-0.26773080
12062.5,-0.03105854,-0.31259984
12066.40625,-0.00713136,-0.34132969
12070.3125,-0.05523440,-0.36783814
12074.21875,-0.04623691,-0.40200734
12078.125,-0.02115530,-0.44758546
12082.03125,-0.07303523,-0.49971932
12085.9375,-0.05477392,-0.54481572
12089.84375,-0.07742731,-0.56957632
12093.75,-0.07147721,-0.57275832
12097.65625,-0.05669571,-0.56753671
12101.5625,-0.07144935,-0.57016188
12105.46875,-0.05342710,-0.58273208
12109.375,-0.08632127,-0.58822906
12113.28125,-0.07575255,-0.56888902
12117.1875,-0.05494576,-0.53145438
12121.09375,-0.05728377,-0.50833905
12125.0,-0.04733976,-0.52915549
12128.90625,-0.07234746,-0.59163874
12132.8125,-0.09477903,-0.66046214
12136.71875,-0.08340355,-0.69142216
12140.625,-0.08396020,-0.65574229
12144.53125,-0.06649394,-0.54697913
12148.4375,-0.02107248,-0.37113303
12152.34375,0.00567893,-0.12861916
12156.25,0.04925587,0.19616012
12160.15625,0.12475964,0.62289423
12164.0625,0.21986090,1.15022266
12167.96875,0.32016176,1.74371648
12171.875,0.40278298,2.34502053
12175.78125,0.49137419,2.88559985
12179.6875,0.57771063,3.29520512
12183.59375,0.61483675,3.51373219
12187.5,0.58862555,3.50816512
12191.40625,0.56550485,3.28039074
12195.3125,0.49597013,2.86106873
12199.21875,0.41526809,2.30059910
12203.125,0.28881279,1.66209686
12207.03125,0.19373465,1.01088190
12210.9375,0.08864518,0.40128267
12214.84375,0.01331503,-0.13022235
12218.75,-0.07313751,-0.56265259
12222.65625,-0.11411140,-0.88579881
12226.5625,-0.15778433,-1.09887636
12230.46875,-0.16670157,-1.21098065
12234.375,-0.18072206,-1.23960888
12238.28125,-0.17820285,-1.20747244
12242.1875,-0.15636790,-1.13906574
12246.09375,-0.13438046,-1.05482543
12250.0,-0.13417423,-0.96411026
12253.90625,-0.13627937,-0.86680990
12257.8125,-0.09073694,-0.76511168
12261.71875,-0.07308595,-0.66914898
12265.625,-0.06802671,-0.58756769
12269.53125,-0.06563979,-0.51770574
12273.4375,-0.05393199,-0.45013210
12277.34375,-0.03319341,-0.38140443
12281.25,-0.02054971,-0.31942514
12285.15625,-0.01341444,-0.27602509
12289.0625,-0.02652557,-0.25632453
12292.96875,-0.01357686,-0.25673059
12296.875,-0.01624746,-0.27076855
12300.78125,-0.02056876,-0.29288700
12304.6875,-0.02295494,-0.31678823
12308.59375,-0.03320202,-0.33403867
12312.5,-0.02598820,-0.33752611
12316.40625,-0.02950577,-0.32698706
12320.3125,-0.03167655,-0.31065771
12324.21875,-0.00542041,-0.29991439
12328.125,-0.03280903,-0.29952353
12332.03125,-0.01121359,-0.30212423
12335.9375,-0.04656655,-0.29389659
12339.84375,-0.00190132,-0.26624182
12343.75,-0.00216500,-0.22064167
12347.65625,-0.00892097,-0.16424929
12351.5625,0.00142330,-0.10582770
12355.46875,0.02812640,-0.05375856
12359.375,0.02795297,-0.01027207
12363.28125,0.02889031,0.03200603
12367.1875,0.03557550,0.08209622
12371.09375,0.04696768,0.13957763
12375.0,0.06041193,0.19467494
12378.90625,0.08153435,0.23889680
12382.8125,0.05643856,0.27228323
12386.71875,0.07131826,0.29790777
12390.625,0.08367260,0.31263304
12394.53125,0.08339718,0.30932167
12398.4375,0.06708128,0.28747210
12402.34375,0.07908031,0.25638762
12406.25,0.04277156,0.22606561
12410.15625,0.07163589,0.19654363
12414.0625,0.05784422,0.15941170
12417.96875,0.03957343,0.11101134
12421.875,0.03964815,0.05948702
12425.78125,0.01937618,0.01502632
12429.6875,0.03057284,-0.02362492
12433.59375,0.01405807,-0.06834684
12437.5,0.00263648,-0.12744372
12441.40625,0.00949271,-0.19460884
12445.3125,-0.02717954,-0.25316912
12449.21875,-0.02782073,-0.29225293
12453.125,-0.02243693,-0.31821972
12457.03125,-0.02425474,-0.34664053
12460.9375,-0.02281942,-0.38277689
12464.84375,-0.06289291,-0.41523895
12468.75,-0.04096657,-0.43105915
12472.65625,-0.04438601,-0.43167767
12476.5625,-0.03605530,-0.42993981
12480.46875,-0.04531097,-0.43514603
12484.375,-0.05512605,-0.44465724
12488.28125,-0.03267515,-0.44564065
12492.1875,-0.04556665,-0.42055154
12496.09375,-0.04393174,-0.35733667
12500.0,-0.01721307,-0.26378950
12503.90625,0.00422867,-0.16942367
12507.8125,0.02851227,-0.10349705
12511.71875,0.00207575,-0.06907311
12515.625,0.01418757,-0.04300537
12519.53125,0.02534759,-0.00137938
12523.4375,0.03710813,0.05806144
12527.34375,0.05445547,0.11638454
12531.25,0.05088607,0.15141606
12535.15625,0.04603068,0.15499580
12539.0625,0.05157506,0.13652788
12542.96875,0.04921694,0.11442935
12546.875,0.04361299,0.10560978
12550.78125,0.04919485,0.11850213
12554.6875,0.02938894,0.14851931
12558.59375,0.07874516,0.17775346
12562.5,0.05544521,0.18477550
12566.40625,0.05087774,0.16018976
12570.3125,0.05141937,0.11315989
12574.21875,0.02812778,0.06221535
12578.125,0.02566412,0.01665873
12582.03125,0.02023431,-0.03732273
12585.9375,0.01720195,-0.12963602
12589.84375,-0.01175856,-0.27910811
12593.75,-0.06507220,-0.47218144
12597.65625,-0.08260153,-0.66871715
12601.5625,-0.10640500,-0.82290286
12605.46875,-0.11959264,-0.89285493
12609.375,-0.09490433,-0.83305556
12613.28125,-0.07269416,-0.58794123
12617.1875,-0.00354839,-0.10837133
12621.09375,0.12326307,0.60867500
12625.0,0.27684039,1.48629653
12628.90625,0.41218111,2.37044740
12632.8125,0.53436065,3.07085729
12636.71875,0.58779693,3.41933703
12640.625,0.58741277,3.32346272
12644.53125,0.48422945,2.79779768
12648.4375,0.35610864,1.95993745
12652.34375,0.17691456,0.99027938
12656.25,0.02867440,0.07005771
12660.15625,-0.07686985,-0.67486161
12664.0625,-0.16804782,-1.19750750
12667.96875,-0.21856607,-1.51519775
12671.875,-0.25094193,-1.67532480
12675.78125,-0.25037557,-1.72376788
12679.6875,-0.24491984,-1.68833554
12683.59375,-0.24154513,-1.58070719
12687.5,-0.19643664,-1.41084433
12691.40625,-0.18160632,-1.19993639
12695.3125,-0.13221096,-0.98136663
12699.21875,-0.09031059,-0.78860539
12703.125,-0.06909519,-0.63747716
12707.03125,-0.06704096,-0.51995927
12710.9375,-0.06638347,-0.42095342
12714.84375,-0.00299461,-0.33889037
12718.75,-0.01007983,-0.28026158
12722.65625,-0.01495276,-0.23718993
12726.5625,-0.01716353,-0.18588176
12730.46875,0.01226606,-0.11068092
12734.375,0.03185753,-0.01985322
12738.28125,0.03489114,0.06422687
12742.1875,0.04796347,0.12365426
12746.09375,0.06749891,0.15548246
12750.0,0.04285526,0.17231828
12753.90625,0.05623244,0.19328344
12757.8125,0.06927816,0.22976242
12761.71875,0.08003980,0.27829871
12765.625,0.07670081,0.32464337
12769.53125,0.08361443,0.35133341
12773.4375,0.08556991,0.34564611
12777.34375,0.08928274,0.30891174
12781.25,0.06502789,0.25968340
12785.15625,0.06258631,0.22189128
12789.0625,0.05964888,0.20544951
12792.96875,0.05247640,0.19815734
12796.875,0.07845378,0.17734055
12800.78125,0.04182369,0.13039789
12804.6875,0.04302631,0.06483281
12808.59375,0.02243619,-0.00071467
12812.5,0.01430568,-0.05429338
12816.40625,0.01174335,-0.10112730
12820.3125,0.01350273,-0.15763113
12824.21875,-0.00543476,-0.23316711
12828.125,-0.02891110,-0.31774539
12832.03125,-0.04809636,-0.39016613
12835.9375,-0.03181473,-0.43668833
12839.84375,-0.04700273,-0.45844129
12843.75,-0.04742993,-0.46407226
12847.65625,-0.04466077,-0.46123397
12851.5625,-0.04887299,-0.45404711
12855.46875,-0.04455809,-0.44396183
12859.375,-0.04453547,-0.43177781
12863.28125,-0.03575201,-0.41824624
12867.1875,-0.02410106,-0.39994591
12871.09375,-0.04359559,-0.36574376
12875.0,-0.03516655,-0.30473456
12878.90625,0.00941570,-0.21997228
12882.8125,0.01625904,-0.12813592
12886.71875,0.00830820,-0.04546020
12890.625,0.03525568,0.01967895
12894.53125,0.03935609,0.06300810
12898.4375,0.04011046,0.08191140
12902.34375,0.05464481,0.07886294
12906.25,0.02984488,0.06506056
12910.15625,0.04487396,0.05816386
12914.0625,0.03219797,0.07288647
12917.96875,0.05134585,0.11060084
12921.875,0.05508795,0.15704523
12925.78125,0.06573513,0.19119768
12929.6875,0.06163988,0.19844818
12933.59375,0.05188980,0.17787176
12937.5,0.06427406,0.14088288
12941.40625,0.04031896,0.10475067
12945.3125,0.03586156,0.08252229
12949.21875,0.04948094,0.07439929
12953.125,0.04873639,0.07097144
12957.03125,0.03070939,0.06468432
12960.9375,0.03365090,0.05228567
12964.84375,0.04191222,0.02843986
12968.75,0.03668647,-0.01175571
12972.65625,0.00797994,-0.06119743
12976.5625,0.01986081,-0.09935924
12980.46875,0.00760431,-0.10690173
12984.375,0.01682048,-0.08220322
12988.28125,0.01844873,-0.04621605
12992.1875,0.02330291,-0.03112710
12996.09375,0.04619248,-0.05628139
13000.0,-0.00090598,-0.10833368
13003.90625,-0.00403066,-0.14909601
13007.8125,0.00184687,-0.14929704
13011.71875,0.02361190,-0.11343568
13015.625,0.01613242,-0.07178722
13019.53125,0.01670010,-0.05461770
13023.4375,0.02896025,-0.07354784
13027.34375,0.01157759,-0.11771706
13031.25,-0.00792087,-0.16389924
13035.15625,-0.00207334,-0.19556573
13039.0625,-0.00325901,-0.21491477
13042.96875,-0.00037936,-0.23556198
13046.875,-0.01263985,-0.26536149
13050.78125,-0.02258474,-0.29859972
13054.6875,-0.02733264,-0.32365826
13058.59375,-0.02583100,-0.33506307
13062.5,-0.01030705,-0.33586931
13066.40625,-0.02996193,-0.33029485
13070.3125,-0.03555302,-0.31943494
13074.21875,0.00094506,-0.30391639
13078.125,-0.02083392,-0.28433612
13082.03125,-0.02289711,-0.25996467
13085.9375,-0.00458273,-0.23244508
13089.84375,0.01527157,-0.20711543
13093.75,-0.02386437,-0.18712264
13097.65625,0.01418765,-0.17116728
13101.5625,0.00566594,-0.15671432
13105.46875,0.00217930,-0.13955827
13109.375,0.02285280,-0.11186595
13113.28125,0.01588068,-0.06611966
13117.1875,0.01770785,-0.00383767
13121.09375,0.04285689,0.05986110
13125.0,0.06865514,0.10677639
13128.90625,0.04960208,0.13589370
13132.8125,0.04769553,0.16712493
13136.71875,0.05714338,0.21807483
13140.625,0.08981059,0.28091362
13144.53125,0.07919747,0.32733816
13148.4375,0.10048112,0.33483663
13152.34375,0.07471532,0.30725861
13156.25,0.07662427,0.27188429
13160.15625,0.05806379,0.25542736
13164.0625,0.08186200,0.25971431
13167.96875,0.07317355,0.26008427
13171.875,0.07830416,0.22810903
13175.78125,0.05628878,0.15615392
13179.6875,0.03487282,0.06084006
13183.59375,0.01411744,-0.03527227
13187.5,0.02172032,-0.12191577
13191.40625,0.00709191,-0.19964814
13195.3125,-0.02003283,-0.26638666
13199.21875,-0.02473468,-0.31443456
13203.125,-0.02357302,-0.34110469
13207.03125,-0.02936309,-0.35633790
13210.9375,-0.03348778,-0.37728059
13214.84375,-0.01257658,-0.41350135
13218.75,-0.06537335,-0.45512167
13222.65625,-0.04439510,-0.47901142
13226.5625,-0.05705864,-0.47111264
13230.46875,-0.03034317,-0.43997529
13234.375,-0.02334780,-0.40523574
13238.28125,-0.04577610,-0.37685487
13242.1875,-0.02813604,-0.35053611
13246.09375,-0.01250196,-0.31954399
13250.0,-0.02717132,-0.28399143
13253.90625,-0.00000297,-0.24938226
13257.8125,-0.00572519,-0.21951555
13261.71875,-0.00061168,-0.19076999
13265.625,0.00130053,-0.15448856
13269.53125,0.01122587,-0.10700234
13273.4375,0.02117505,-0.05575358
13277.34375,0.04399759,-0.01217763
13281.25,0.02352825,0.02141286
13285.15625,0.03608606,0.05405352
13289.0625,0.05654211,0.09385470
13292.96875,0.03218403,0.13464637
13296.875,0.07049248,0.15473343
13300.78125,0.05815784,0.13251914
13304.6875,0.04685899,0.06900313
13308.59375,0.01544477,-0.00868160
13312.5,0.01023312,-0.07348505
13316.40625,0.01887237,-0.12660898
13320.3125,0.00250223,-0.19389600
13324.21875,-0.01917160,-0.29454538
13328.125,-0.03348900,-0.41437790
13332.03125,-0.05307946,-0.50390559
13335.9375,-0.05289256,-0.49771798
13339.84375,-0.03470746,-0.34171504
13343.75,0.02976696,-0.01283723
13347.65625,0.12203287,0.47982404
13351.5625,0.20263793,1.10741103
13355.46875,0.32962421,1.82994628
13359.375,0.46357325,2.59537816
13363.28125,0.57069468,3.33770847
13367.1875,0.67718452,3.97891140
13371.09375,0.76924402,4.43585825
13375.0,0.79197127,4.63616562
13378.90625,0.76860726,4.53789806
13382.8125,0.71582800,4.14091682
13386.71875,0.59792900,3.48762512
13390.625,0.47224569,2.65756392
13394.53125,0.31858662,1.75537217
13398.4375,0.17146128,0.88964069
13402.34375,0.04638995,0.14625293
13406.25,-0.03984242,-0.43184114
13410.15625,-0.10634287,-0.84588194
13414.0625,-0.15227057,-1.12366092
13417.96875,-0.18014649,-1.29638827
13421.875,-0.19896936,-1.38484681
13425.78125,-0.21458633,-1.40110850
13429.6875,-0.18346737,-1.35836649
13433.59375,-0.17422767,-1.27351451
13437.5,-0.16355431,-1.15997183
13441.40625,-0.14750952,-1.02548504
13445.3125,-0.11703330,-0.88100928
13449.21875,-0.08906247,-0.74641728
13453.125,-0.07186312,-0.64107454
13457.03125,-0.05825131,-0.56829143
13460.9375,-0.07322559,-0.51254243
13464.84375,-0.03744748,-0.45392299
13468.75,-0.03784966,-0.38392156
13472.65625,-0.01657372,-0.30812484
13476.5625,-0.02143728,-0.23886372
13480.46875,0.01299452,-0.18536001
13484.375,0.00261240,-0.14467034
13488.28125,-0.00095125,-0.10131276
13492.1875,0.02814641,-0.04052670
13496.09375,0.03527626,0.03786743
13500.0,0.04566054,0.11968878
13503.90625,0.05432384,0.18706724
13507.8125,0.07698788,0.22935079
13511.71875,0.06690485,0.24880414
13515.625,0.05627174,0.25641605
13519.53125,0.08238782,0.26057020
13523.4375,0.06424554,0.26169235
13527.34375,0.07190162,0.25731522
13531.25,0.07403528,0.24778503
13535.15625,0.05112406,0.23610708
13539.0625,0.08199635,0.22514789
13542.96875,0.05148587,0.21570784
13546.875,0.05418741,0.20365389
13550.78125,0.06307114,0.17769042
13554.6875,0.05763364,0.12624927
13558.59375,0.02090907,0.05020245
13562.5,0.02858284,-0.03495809
13566.40625,0.00567393,-0.11030965
13570.3125,-0.00475182,-0.16624229
13574.21875,-0.01321537,-0.20909905
13578.125,-0.00693052,-0.25645232
13582.03125,-0.00951458,-0.31904522
13585.9375,-0.06471268,-0.38643038
