rel_ms,value_mv,normalized
0.0,-0.00989973,-0.07314879
3.90625,0.00211710,-0.09239939
7.8125,0.00297234,-0.07124216
11.71875,0.02773415,-0.02323681
15.625,0.02531153,0.02925384
19.53125,0.03852716,0.07417132
23.4375,0.03411599,0.11416014
27.34375,0.03851756,0.15481043
31.25,0.07321629,0.19264825
35.15625,0.05348464,0.21712983
39.0625,0.06372665,0.22148561
42.96875,0.05878776,0.20798692
46.875,0.05126528,0.18426377
50.78125,0.04636785,0.15707123
54.6875,0.05465114,0.12957296
58.59375,0.03703710,0.10330125
62.5,0.03160161,0.07923312
66.40625,0.02589986,0.05411365
70.3125,0.03169229,0.01883439
74.21875,0.01767667,-0.03396171
78.125,0.00628905,-0.09935197
82.03125,-0.01239319,-0.16003379
85.9375,-0.02885393,-0.19982719
89.84375,-0.00666030,-0.21731238
93.75,-0.01125952,-0.22370198
97.65625,-0.02828277,-0.22876960
101.5625,-0.02272620,-0.23390575
105.46875,-0.02138896,-0.23780480
109.375,-0.02127924,-0.24215735
113.28125,-0.01971716,-0.24958053
117.1875,-0.03490887,-0.25871781
121.09375,-0.00921509,-0.26237252
125.0,-0.03974734,-0.25033230
128.90625,-0.01144390,-0.21701065
132.8125,-0.01261957,-0.16968569
136.71875,-0.00474661,-0.12866865
140.625,0.01057307,-0.11524056
144.53125,0.00891181,-0.13373730
148.4375,-0.01984589,-0.16433375
152.34375,-0.02391099,-0.17915189
156.25,0.00823718,-0.16797954
160.15625,-0.01204313,-0.14535619
164.0625,0.00133763,-0.13380207
167.96875,0.01261198,-0.14226368
171.875,-0.01636789,-0.15818241
175.78125,-0.02127505,-0.16050398
179.6875,0.00780914,-0.14204086
183.59375,0.00595338,-0.11610203
187.5,0.00336551,-0.10135813
191.40625,0.00793346,-0.10502844
195.3125,-0.00136439,-0.11976240
199.21875,-0.00732361,-0.13149726
203.125,0.01112483,-0.12872627
207.03125,0.00415454,-0.10673933
210.9375,-0.00084962,-0.06853320
214.84375,0.02829567,-0.02547655
218.75,0.02504622,0.00693003
222.65625,0.03429280,0.01984787
226.5625,0.02110478,0.01801381
230.46875,0.02841115,0.01478993
234.375,0.02725175,0.02124017
238.28125,0.03096484,0.03986723
242.1875,0.04558453,0.06653510
246.09375,0.03460502,0.09533552
250.0,0.04803968,0.11949727
253.90625,0.04652540,0.12986255
257.8125,0.06429413,0.11859682
261.71875,0.01967377,0.08596484
265.625,0.04232150,0.03944133
269.53125,0.02483551,-0.01329105
273.4375,0.01907070,-0.06626290
277.34375,-0.00557676,-0.11326029
281.25,-0.00166182,-0.15045659
285.15625,0.00450886,-0.18013257
289.0625,-0.01371990,-0.20795396
292.96875,-0.01985603,-0.23858805
296.875,-0.03191625,-0.27698803
300.78125,-0.02140056,-0.32975328
304.6875,-0.04131405,-0.39871624
308.59375,-0.07200631,-0.47334328
312.5,-0.05700132,-0.53262293
316.40625,-0.07381734,-0.55509746
320.3125,-0.08900493,-0.53165281
324.21875,-0.05440116,-0.47551912
328.125,-0.02835921,-0.41569144
332.03125,-0.03846140,-0.37181187
335.9375,-0.04623514,-0.33826330
339.84375,-0.03524745,-0.29769197
343.75,-0.00107472,-0.24313593
347.65625,-0.00259444,-0.18034893
351.5625,0.00678171,-0.11555784
355.46875,0.01646698,-0.05036187
359.375,0.02834920,0.01317777
363.28125,0.04787826,0.06956500
367.1875,0.05439604,0.11424728
371.09375,0.05883906,0.14861640
375.0,0.05089692,0.17802720
378.90625,0.07516678,0.20459132
382.8125,0.06474362,0.22371717
386.71875,0.08819541,0.22896849
390.625,0.06007975,0.22000352
394.53125,0.07210873,0.20513095
398.4375,0.07034096,0.19537805
402.34375,0.04957726,0.19372894
406.25,0.07973993,0.18854442
410.15625,0.06899297,0.16089779
414.0625,0.03734988,0.10132486
417.96875,0.04296113,0.01812531
421.875,0.02867949,-0.06886468
425.78125,-0.01683710,-0.14091308
429.6875,0.00817653,-0.19229552
433.59375,-0.00437975,-0.23218733
437.5,-0.01066694,-0.27145836
441.40625,-0.03159748,-0.30888468
445.3125,-0.02772774,-0.33373982
449.21875,-0.03113772,-0.33983344
453.125,-0.01784890,-0.33352396
457.03125,-0.02977816,-0.32861853
460.9375,-0.03414494,-0.33580324
464.84375,-0.01469071,-0.35515255
468.75,-0.03744835,-0.37383562
472.65625,-0.03214266,-0.37180480
476.5625,-0.04507052,-0.33675152
480.46875,0.00044504,-0.27673176
484.375,-0.00145197,-0.21552871
488.28125,0.00360125,-0.17447823
492.1875,0.00630601,-0.15887374
496.09375,0.00514749,-0.15802492
500.0,0.01165560,-0.15430847
503.90625,0.01084629,-0.13440736
507.8125,0.01567580,-0.09790426
511.71875,0.02239373,-0.05839300
515.625,0.04284408,-0.03407622
519.53125,0.03366525,-0.03254260
523.4375,0.02795607,-0.04318631
527.34375,0.02279124,-0.04696592
531.25,0.02272009,-0.03570430
535.15625,0.04978031,-0.02079388
539.0625,0.03656034,-0.02066468
542.96875,0.03106399,-0.04020789
546.875,0.02582667,-0.06508946
550.78125,0.01645664,-0.07659556
554.6875,0.02889064,-0.07000131
558.59375,0.04031248,-0.05670566
562.5,0.02550067,-0.05013544
566.40625,0.02812456,-0.05430414
570.3125,0.02907905,-0.06563988
574.21875,0.03411966,-0.07831074
578.125,0.01488175,-0.08490167
582.03125,0.03239153,-0.07817906
585.9375,0.02609442,-0.05683148
589.84375,0.04788150,-0.02776880
593.75,0.02859865,-0.00187445
597.65625,0.04488433,0.01082079
601.5625,0.05578645,0.00418662
605.46875,0.03258548,-0.02043435
609.375,0.02723391,-0.05353121
613.28125,0.03405956,-0.08274664
617.1875,0.02824389,-0.09934466
621.09375,0.01207524,-0.10324143
625.0,0.02455143,-0.10647810
628.90625,0.03762470,-0.12748176
632.8125,0.00429651,-0.17512912
636.71875,-0.00137525,-0.24030869
640.625,-0.01790525,-0.30543372
644.53125,-0.00783454,-0.35748217
648.4375,-0.03256730,-0.39089018
652.34375,-0.03623717,-0.40563869
656.25,-0.01213395,-0.40639451
660.15625,-0.04186867,-0.39942130
664.0625,-0.02033501,-0.38879302
667.96875,-0.01597352,-0.37693721
671.875,-0.03064793,-0.36742768
675.78125,-0.02509306,-0.36564159
679.6875,-0.00475234,-0.37410992
683.59375,-0.02550282,-0.38385859
687.5,-0.02383728,-0.37430340
691.40625,-0.02530670,-0.33001047
695.3125,0.00011923,-0.25872990
699.21875,0.02684755,-0.18757658
703.125,0.03060924,-0.13826157
707.03125,0.01800219,-0.10799687
710.9375,0.02915785,-0.07650058
714.84375,0.04307044,-0.02860374
718.75,0.06159776,0.03292182
722.65625,0.06357646,0.09303690
726.5625,0.07528013,0.13750054
730.46875,0.08142734,0.16147089
734.375,0.07775833,0.17028433
738.28125,0.08253433,0.17422688
742.1875,0.08530121,0.18147011
746.09375,0.07975174,0.19241440
750.0,0.08293092,0.19646521
753.90625,0.09378068,0.17533582
757.8125,0.07136322,0.11632527
761.71875,0.05657137,0.02577057
765.625,0.02628877,-0.07270054
769.53125,0.04107342,-0.15387492
773.4375,0.00254510,-0.20566711
777.34375,-0.00160083,-0.23512009
781.25,0.01519768,-0.26445052
785.15625,0.00357967,-0.31444034
789.0625,-0.01574261,-0.38439059
792.96875,-0.04251323,-0.45018750
796.875,-0.03335764,-0.48547509
800.78125,-0.04275122,-0.48545679
804.6875,-0.03149645,-0.47188431
808.59375,-0.01553532,-0.47515476
812.5,-0.04269844,-0.50826937
816.40625,-0.05681588,-0.55767596
820.3125,-0.06350542,-0.60063332
824.21875,-0.05226901,-0.62730348
828.125,-0.05616646,-0.64220649
832.03125,-0.07050493,-0.64974028
835.9375,-0.05753460,-0.64604193
839.84375,-0.07333104,-0.62416941
843.75,-0.04301520,-0.58038044
847.65625,-0.03368888,-0.51024568
851.5625,-0.01290100,-0.39875248
855.46875,0.00386121,-0.21848938
859.375,0.07035223,0.06001787
863.28125,0.13956422,0.45743641
867.1875,0.23687518,0.98246884
871.09375,0.35923651,1.63086140
875.0,0.48499975,2.37961602
878.90625,0.62639874,3.17860055
882.8125,0.78950036,3.94920969
886.71875,0.89290255,4.59767485
890.625,0.97869235,5.03885460
894.53125,1.02452183,5.21872473
898.4375,0.97851998,5.12523365
902.34375,0.92808706,4.78175783
906.25,0.83595556,4.23023748
910.15625,0.70445216,3.52076507
914.0625,0.54449898,2.71150208
917.96875,0.40803215,1.86866748
921.875,0.25437745,1.06160533
925.78125,0.11188298,0.35303181
929.6875,0.01343757,-0.21516986
933.59375,-0.04238011,-0.63087606
937.5,-0.09914718,-0.90502465
941.40625,-0.15923953,-1.05912673
945.3125,-0.13506693,-1.12165523
949.21875,-0.14606497,-1.12607491
953.125,-0.13018441,-1.09905493
957.03125,-0.13830781,-1.04913843
960.9375,-0.12160333,-0.97186697
964.84375,-0.11486249,-0.86787814
968.75,-0.05456465,-0.75459301
972.65625,-0.07212358,-0.65889376
976.5625,-0.03792886,-0.59911406
980.46875,-0.05396574,-0.57354939
984.375,-0.03578293,-0.56322175
988.28125,-0.05158265,-0.54624909
992.1875,-0.03188725,-0.51418895
996.09375,-0.01291467,-0.47660241
1000.0,-0.03844468,-0.45032725
1003.90625,-0.01013140,-0.44569281
1007.8125,-0.01899167,-0.46005794
1011.71875,-0.03569121,-0.47976691
1015.625,-0.02905105,-0.49008363
1019.53125,-0.02785997,-0.48666331
1023.4375,-0.02148248,-0.47649440
1027.34375,-0.02490604,-0.46753681
1031.25,-0.02492470,-0.45942059
1035.15625,-0.01407649,-0.44382128
1039.0625,-0.01708855,-0.41215813
1042.96875,-0.01358487,-0.36402580
1046.875,0.00883237,-0.30940947
1050.78125,0.02821006,-0.26034132
1054.6875,0.00793062,-0.21949245
1058.59375,0.03520233,-0.17936082
1062.5,0.03617341,-0.13142739
1066.40625,0.04071029,-0.07349041
1070.3125,0.07050601,-0.01115784
1074.21875,0.06096713,0.04421907
1078.125,0.09092480,0.08116969
1082.03125,0.06796640,0.09571027
1085.9375,0.08478153,0.09469367
1089.84375,0.07854362,0.09041917
1093.75,0.07158162,0.08991594
1097.65625,0.08525304,0.08813170
1101.5625,0.07216492,0.07228713
1105.46875,0.07543931,0.03458637
1109.375,0.06031744,-0.01900120
1113.28125,0.03925416,-0.07366733
1117.1875,0.04142340,-0.12055790
1121.09375,0.03288576,-0.16570885
1125.0,0.03293502,-0.22230178
1128.90625,-0.00039657,-0.29498807
1132.8125,-0.00076213,-0.37454754
1136.71875,-0.03124441,-0.44741502
1140.625,-0.01232466,-0.50641930
1144.53125,-0.04175008,-0.55097938
1148.4375,-0.05801643,-0.58299029
1152.34375,-0.04350736,-0.60803539
1156.25,-0.03491323,-0.63527542
1160.15625,-0.07091343,-0.66912085
1164.0625,-0.06936684,-0.70372581
1167.96875,-0.06840914,-0.72912961
1171.875,-0.07593529,-0.74048668
1175.78125,-0.06056200,-0.74071795
1179.6875,-0.07731599,-0.73676383
1183.59375,-0.07820216,-0.73435605
1187.5,-0.06306208,-0.73466861
1191.40625,-0.07692613,-0.73225868
1195.3125,-0.05587769,-0.71311826
1199.21875,-0.05901195,-0.65437573
1203.125,-0.03866011,-0.52961928
1207.03125,-0.01088637,-0.32091123
1210.9375,0.08260676,-0.02727567
1214.84375,0.12010369,0.34127054
1218.75,0.20399289,0.77453071
1222.65625,0.28802535,1.25987446
1226.5625,0.38244012,1.76960123
1230.46875,0.47077498,2.25631380
1234.375,0.57197553,2.66588664
1238.28125,0.59653759,2.95824075
1242.1875,0.62440908,3.11571813
1246.09375,0.63483614,3.13263416
1250.0,0.60349613,3.00253701
1253.90625,0.57197732,2.71993351
1257.8125,0.49270332,2.29461288
1261.71875,0.37505448,1.76267135
1265.625,0.26604804,1.17999113
1269.53125,0.17531961,0.60308158
1273.4375,0.10085531,0.07628845
1277.34375,-0.03221019,-0.37020445
1281.25,-0.05871986,-0.72296780
1285.15625,-0.12776046,-0.98719031
1289.0625,-0.13598362,-1.17671716
1292.96875,-0.18061572,-1.29853570
1296.875,-0.17833866,-1.34934509
1300.78125,-0.19087870,-1.32796526
1304.6875,-0.17562151,-1.25042713
1308.59375,-0.13382600,-1.15081155
1312.5,-0.12454884,-1.06230032
1316.40625,-0.12206118,-0.99477315
1320.3125,-0.11060332,-0.93305224
1324.21875,-0.10673211,-0.85813761
1328.125,-0.07407719,-0.76865649
1332.03125,-0.05691930,-0.68136734
1335.9375,-0.04675713,-0.61312979
1339.84375,-0.03808192,-0.56506860
1343.75,-0.04351679,-0.52412421
1347.65625,-0.02563275,-0.47774890
1351.5625,-0.02149861,-0.42677656
1355.46875,-0.00285326,-0.38579875
1359.375,0.00596873,-0.37089297
1363.28125,-0.01663568,-0.38479528
1367.1875,-0.02291398,-0.41342649
1371.09375,-0.01312044,-0.43660855
1375.0,-0.01791859,-0.44097552
1378.90625,-0.01730104,-0.42457566
1382.8125,-0.00620286,-0.39351362
1386.71875,-0.01438541,-0.35592285
1390.625,0.00981104,-0.31830716
1394.53125,0.00644184,-0.28539190
1398.4375,0.01651503,-0.25992328
1402.34375,0.01770237,-0.24026015
1406.25,0.01795109,-0.21905059
1410.15625,0.02228826,-0.18742375
1414.0625,0.03778875,-0.14277487
1417.96875,0.04077439,-0.09238501
1421.875,0.05639801,-0.04872771
1425.78125,0.05903754,-0.02065492
1429.6875,0.04728264,-0.00834102
1433.59375,0.06781007,-0.00568521
1437.5,0.05292536,-0.00626897
1441.40625,0.06220344,-0.00703910
1445.3125,0.06506869,-0.00792073
1449.21875,0.04109886,-0.01004361
1453.125,0.06292043,-0.01634872
1457.03125,0.05794640,-0.03280214
1460.9375,0.04717017,-0.06554465
1464.84375,0.03570497,-0.11584327
1468.75,0.02706722,-0.17803527
1472.65625,0.00987302,-0.24221641
1476.5625,0.00797779,-0.30041122
1480.46875,-0.00589811,-0.35121310
1484.375,-0.00842699,-0.39762861
1488.28125,-0.03369455,-0.44147018
1492.1875,-0.02528394,-0.48222893
1496.09375,-0.03412259,-0.51991367
1500.0,-0.04388470,-0.55527806
1503.90625,-0.05221003,-0.58673698
1507.8125,-0.04331979,-0.60848480
1511.71875,-0.07108890,-0.61321801
1515.625,-0.04487511,-0.59881103
1519.53125,-0.04491758,-0.57171553
1523.4375,-0.04010028,-0.54107714
1527.34375,-0.03294574,-0.50978684
1531.25,-0.03800920,-0.47330424
1535.15625,-0.02471704,-0.42729634
1539.0625,-0.00449446,-0.37436199
1542.96875,0.00308920,-0.32065797
1546.875,0.01073744,-0.26654419
1550.78125,0.00036928,-0.20553942
1554.6875,0.03491048,-0.13555060
1558.59375,0.05173465,-0.06728605
1562.5,0.05812131,-0.01658802
1566.40625,0.05594140,0.01013855
1570.3125,0.04020901,0.01885647
1574.21875,0.07447670,0.01832144
1578.125,0.06407917,0.01309428
1582.03125,0.03652323,0.00463883
1585.9375,0.07092164,-0.00624997
1589.84375,0.04646488,-0.01735188
1593.75,0.04541098,-0.02398295
1597.65625,0.04873647,-0.02344558
1601.5625,0.06600763,-0.01931217
1605.46875,0.03988704,-0.01826615
1609.375,0.04065235,-0.02726838
1613.28125,0.05114991,-0.05560967
1617.1875,0.04203080,-0.11090391
1621.09375,0.01457496,-0.18756163
1625.0,0.00622292,-0.26416436
1628.90625,-0.01213028,-0.31710085
1632.8125,-0.01073591,-0.33743638
1636.71875,-0.00187518,-0.33542371
1640.625,-0.00591568,-0.33042401
1644.53125,-0.01210870,-0.33642948
1648.4375,-0.00335672,-0.35352561
1652.34375,-0.02557091,-0.36896405
1656.25,-0.01721020,-0.36788464
1660.15625,-0.00733066,-0.34742218
1664.0625,-0.00812338,-0.32093281
1667.96875,-0.00090588,-0.30693939
1671.875,-0.00735494,-0.31376803
1675.78125,-0.01406997,-0.33438453
1679.6875,-0.00425330,-0.35354623
1683.59375,-0.01899132,-0.35821894
1687.5,-0.02520755,-0.34490454
1691.40625,0.00257146,-0.32224965
1695.3125,-0.00426643,-0.30550104
1699.21875,0.00049990,-0.30491686
1703.125,-0.02359287,-0.31985101
1707.03125,-0.00808256,-0.34329528
1710.9375,-0.01189138,-0.36710522
1714.84375,-0.01664012,-0.38170975
1718.75,-0.03559187,-0.37877887
1722.65625,-0.01562216,-0.36128232
1726.5625,-0.00484425,-0.34726244
1730.46875,-0.01606786,-0.35725608
1734.375,-0.03386319,-0.39852363
1738.28125,-0.03355969,-0.46161160
1742.1875,-0.03110305,-0.52549684
1746.09375,-0.07900173,-0.56425077
1750.0,-0.05006789,-0.55713725
1753.90625,-0.03907644,-0.49694464
1757.8125,-0.02530594,-0.38582161
1761.71875,0.01214158,-0.22238004
1765.625,0.04776761,0.00737992
1769.53125,0.10090886,0.32920936
1773.4375,0.18620493,0.76982546
1777.34375,0.29911792,1.34136534
1781.25,0.40790457,2.02885008
1785.15625,0.54853213,2.78473330
1789.0625,0.69358033,3.53402495
1792.96875,0.82601768,4.19297028
1796.875,0.89343184,4.69160986
1800.78125,0.94934642,4.98236656
1804.6875,0.96134073,5.03402758
1808.59375,0.93648678,4.82954359
1812.5,0.83735442,4.37654972
1816.40625,0.73715460,3.71826410
1820.3125,0.56608671,2.92933345
1824.21875,0.42324004,2.09429049
1828.125,0.27308795,1.28190517
1832.03125,0.14741218,0.53495967
1835.9375,0.03264658,-0.11951846
1839.84375,-0.09255045,-0.65777618
1843.75,-0.15592258,-1.06232202
1847.65625,-0.18890980,-1.33187568
1851.5625,-0.22930461,-1.48035645
1855.46875,-0.25209457,-1.52895784
1859.375,-0.22133026,-1.50367546
1863.28125,-0.21860041,-1.43265557
1867.1875,-0.20283905,-1.33703411
1871.09375,-0.19437298,-1.22630990
1875.0,-0.15361270,-1.10527635
1878.90625,-0.14480709,-0.98128599
1882.8125,-0.10438378,-0.86143082
1886.71875,-0.10446216,-0.74551260
1890.625,-0.08065399,-0.62702680
1894.53125,-0.04612302,-0.50266403
1898.4375,-0.03675972,-0.37854043
1902.34375,-0.00176507,-0.26603386
1906.25,0.00977479,-0.17259307
1910.15625,0.01005584,-0.09730266
1914.0625,0.03435944,-0.03498705
1917.96875,0.03944770,0.01803391
1921.875,0.06262890,0.06483299
1925.78125,0.04982173,0.11126477
1929.6875,0.05574217,0.16136768
1933.59375,0.07703497,0.20766060
1937.5,0.08883651,0.23219688
1941.40625,0.08355530,0.22202918
1945.3125,0.05621317,0.18093754
1949.21875,0.05247043,0.12350543
1953.125,0.06137849,0.06231138
1957.03125,0.03362645,0.00377835
1960.9375,0.01484112,-0.05081946
1964.84375,0.01898719,-0.10636982
1968.75,0.01391497,-0.16973943
1972.65625,-0.01037068,-0.23845863
1976.5625,-0.02865627,-0.29834118
1980.46875,-0.03394644,-0.33688909
1984.375,-0.01564376,-0.35479110
1988.28125,-0.03860797,-0.36145735
1992.1875,-0.03591887,-0.36507100
1996.09375,-0.03515283,-0.37043774
2000.0,-0.03249710,-0.38061306
2003.90625,-0.04493456,-0.39542189
2007.8125,-0.03475219,-0.40973184
2011.71875,-0.05017529,-0.41514200
2015.625,-0.04166618,-0.40466028
2019.53125,-0.04668385,-0.37844715
2023.4375,-0.01728636,-0.34539413
2027.34375,-0.02726575,-0.31626257
2031.25,-0.03166644,-0.29521996
2035.15625,-0.02283351,-0.28037611
2039.0625,-0.01719175,-0.26979530
2042.96875,-0.00230326,-0.26088333
2046.875,-0.02639756,-0.24484271
2050.78125,-0.01667727,-0.21066935
2054.6875,-0.00623515,-0.15950714
2058.59375,0.03072374,-0.10916390
2062.5,0.01335775,-0.07830891
2066.40625,0.00167231,-0.07006803
2070.3125,0.01231139,-0.07531412
2074.21875,0.02894121,-0.08525899
2078.125,0.00175996,-0.09478036
2082.03125,0.00041569,-0.10002340
2085.9375,0.01964314,-0.09905392
2089.84375,0.01145216,-0.09112539
2093.75,0.01421577,-0.07392622
2097.65625,0.00097391,-0.04755281
2101.5625,0.03138528,-0.02214171
2105.46875,0.03034766,-0.01408207
2109.375,0.01845308,-0.02981090
2113.28125,0.02193917,-0.05575068
2117.1875,-0.00838118,-0.06809058
2121.09375,0.02585483,-0.05408106
2125.0,0.01802225,-0.02357642
2128.90625,0.02741811,0.00056323
2132.8125,0.03173660,0.00310774
2136.71875,0.01995091,-0.01210458
2140.625,0.00299391,-0.03104115
2144.53125,0.02507268,-0.04865485
2148.4375,0.00651209,-0.07598218
2152.34375,0.00264041,-0.12842444
2156.25,-0.01396651,-0.21091485
2160.15625,-0.02933498,-0.31457260
2164.0625,-0.07668492,-0.42548239
2167.96875,-0.06203347,-0.53632122
2171.875,-0.10199559,-0.64780128
2175.78125,-0.11518840,-0.75515777
2179.6875,-0.11512960,-0.82851571
2183.59375,-0.12572315,-0.80264270
2187.5,-0.10133873,-0.59232873
2191.40625,-0.00395401,-0.13520509
2195.3125,0.11822169,0.56382638
2199.21875,0.28024927,1.41797757
2203.125,0.44504654,2.28015137
2207.03125,0.55143070,2.98415542
2210.9375,0.65505898,3.38735485
2214.84375,0.63414764,3.40559673
2218.75,0.58235598,3.03422737
2222.65625,0.44613543,2.34793830
2226.5625,0.28247389,1.47819746
2230.46875,0.12366699,0.57712907
2234.375,-0.02145449,-0.21859269
2238.28125,-0.12750433,-0.81432205
2242.1875,-0.20872536,-1.17274022
2246.09375,-0.22436544,-1.31596529
2250.0,-0.21107440,-1.30780900
2253.90625,-0.19928853,-1.21852839
2257.8125,-0.18370336,-1.09339702
2261.71875,-0.15932724,-0.94667923
2265.625,-0.14006017,-0.77905893
2269.53125,-0.07816675,-0.59691817
2273.4375,-0.06186340,-0.41636962
2277.34375,-0.03193796,-0.25524849
2281.25,-0.01001175,-0.12613928
2285.15625,0.01314374,-0.03408912
2289.0625,0.01938323,0.02471028
2292.96875,0.03065333,0.06184029
2296.875,0.02092314,0.08887590
2300.78125,0.02781172,0.10670316
2304.6875,0.05495175,0.10465312
2308.59375,0.01976390,0.07366291
2312.5,0.00917549,0.01745190
2316.40625,0.00890143,-0.05135221
2320.3125,0.00103706,-0.12003911
2324.21875,-0.03080022,-0.17878148
2328.125,-0.02951452,-0.22265346
2332.03125,-0.02489588,-0.25437608
2335.9375,-0.04058339,-0.28157765
2339.84375,-0.04906293,-0.31059039
2343.75,-0.03721425,-0.34296477
2347.65625,-0.06785020,-0.37502494
2351.5625,-0.06103963,-0.40113261
2355.46875,-0.06904786,-0.41941598
2359.375,-0.04420742,-0.43086776
2363.28125,-0.08340600,-0.43107808
2367.1875,-0.06466887,-0.40975159
2371.09375,-0.05854985,-0.36339071
2375.0,-0.03894573,-0.30444244
2378.90625,-0.03370147,-0.25322074
2382.8125,-0.01789743,-0.22066915
2386.71875,-0.04701935,-0.20066197
2390.625,-0.01266906,-0.17969397
2394.53125,-0.01899704,-0.15210541
2398.4375,-0.01770862,-0.12483329
2402.34375,0.00191952,-0.10917534
2406.25,-0.01113664,-0.10817437
2410.15625,-0.02133964,-0.11141652
2414.0625,0.00199942,-0.10278115
2417.96875,-0.00949142,-0.07295487
2421.875,0.00195183,-0.02622094
2425.78125,0.01473921,0.02044632
2429.6875,0.01394456,0.04536845
2433.59375,0.02865467,0.03552934
2437.5,0.00624407,-0.00292484
2441.40625,-0.01098490,-0.04786741
2445.3125,-0.00300803,-0.07770959
2449.21875,-0.00632431,-0.08599127
2453.125,-0.01116707,-0.08143620
2457.03125,0.00758606,-0.07632240
2460.9375,-0.00623446,-0.07454593
2464.84375,-0.02281412,-0.07048184
2468.75,0.00894121,-0.05909283
2472.65625,-0.00086760,-0.04293822
2476.5625,0.00481393,-0.02756022
2480.46875,0.00195439,-0.01492584
2484.375,0.00841344,-0.00391273
2488.28125,0.00132211,0.00533226
2492.1875,0.01550213,0.00892911
2496.09375,0.00522567,0.00081297
2500.0,0.00384105,-0.02249053
2503.90625,0.00252895,-0.05696280
2507.8125,-0.02199678,-0.09103611
2511.71875,-0.00926067,-0.11314272
2515.625,-0.01381137,-0.12084358
2519.53125,-0.01224195,-0.12244588
2523.4375,-0.03562425,-0.13175026
2527.34375,-0.00475341,-0.16081591
2531.25,-0.02847662,-0.21100022
2535.15625,-0.04979466,-0.26823387
2539.0625,-0.06127431,-0.31285763
2542.96875,-0.04943098,-0.33663064
2546.875,-0.05198988,-0.34695449
2550.78125,-0.06375336,-0.35575831
2554.6875,-0.05741103,-0.36832067
2558.59375,-0.06857425,-0.38070241
2562.5,-0.05545057,-0.38297999
2566.40625,-0.07066173,-0.36610511
2570.3125,-0.06095326,-0.33150756
2574.21875,-0.04586353,-0.29485855
2578.125,-0.02247884,-0.27386764
2582.03125,-0.05983854,-0.26938069
2585.9375,-0.04652590,-0.26379117
2589.84375,-0.04319828,-0.23975548
2593.75,-0.01505022,-0.19497536
2597.65625,-0.02900188,-0.13901387
2601.5625,-0.01149644,-0.08343932
2605.46875,0.00350802,-0.03642741
2609.375,0.00136766,-0.00050566
2613.28125,0.01026932,0.02779598
2617.1875,0.02380019,0.05544997
2621.09375,0.01088934,0.08902775
2625.0,0.02393727,0.12950669
2628.90625,0.03992382,0.16820863
2632.8125,0.04852251,0.19186267
2636.71875,0.04455772,0.19577479
2640.625,0.02369486,0.18894833
2644.53125,0.03579943,0.18200161
2648.4375,0.04561002,0.17274246
2652.34375,0.03579708,0.14844936
2656.25,0.01991879,0.10035177
2660.15625,0.00084224,0.03152130
2664.0625,0.00886948,-0.04645946
2667.96875,-0.01635703,-0.11879977
2671.875,-0.03432625,-0.17269295
2675.78125,-0.04065763,-0.20590121
2679.6875,-0.02392106,-0.23098202
2683.59375,-0.04817444,-0.26525536
2687.5,-0.04542580,-0.31484944
2691.40625,-0.07244134,-0.36973327
2695.3125,-0.06153648,-0.41287935
2699.21875,-0.08490791,-0.43404683
2703.125,-0.08344511,-0.43853742
2707.03125,-0.05489223,-0.44341993
2710.9375,-0.07848602,-0.46160790
2714.84375,-0.09704892,-0.49127880
2718.75,-0.09636799,-0.52543098
2722.65625,-0.09714556,-0.56661421
2726.5625,-0.09363712,-0.62265468
2730.46875,-0.12177178,-0.68836993
2734.375,-0.14330924,-0.73922563
2738.28125,-0.12777635,-0.74436253
2742.1875,-0.11695714,-0.67981517
2746.09375,-0.09326945,-0.52770054
2750.0,-0.03461172,-0.26861337
2753.90625,0.02434077,0.12099065
2757.8125,0.13003859,0.66119945
2761.71875,0.23247392,1.34938884
2765.625,0.39766616,2.13790965
2769.53125,0.55455405,2.93011403
2773.4375,0.66199660,3.60567236
2777.34375,0.74094385,4.05702734
2781.25,0.77214396,4.21334124
2785.15625,0.76514518,4.05089760
2789.0625,0.65081990,3.59683251
2792.96875,0.53646004,2.92153978
2796.875,0.39504725,2.11862159
2800.78125,0.24545552,1.28481281
2804.6875,0.09006866,0.50648528
2808.59375,-0.01923018,-0.15207228
2812.5,-0.11624307,-0.65751809
2816.40625,-0.17296256,-1.00583720
2820.3125,-0.21211813,-1.21115196
2824.21875,-0.23974194,-1.29573631
2828.125,-0.22628655,-1.28745079
2832.03125,-0.20463905,-1.21832001
2835.9375,-0.20895149,-1.11809170
2839.84375,-0.17859386,-1.00751674
2843.75,-0.14466108,-0.89577740
2847.65625,-0.14280850,-0.78085023
2851.5625,-0.10679872,-0.65540731
2855.46875,-0.10327103,-0.51961613
2859.375,-0.06150190,-0.39025676
2863.28125,-0.03509679,-0.29333919
2867.1875,-0.02939494,-0.24390091
2871.09375,-0.04992213,-0.23402272
2875.0,-0.03449132,-0.24224971
2878.90625,-0.04003568,-0.25174370
2882.8125,-0.03997701,-0.25770661
2886.71875,-0.02352818,-0.26190591
2890.625,-0.05962884,-0.26575091
2894.53125,-0.03328187,-0.27036414
2898.4375,-0.04881779,-0.27946416
2902.34375,-0.03347506,-0.29602253
2906.25,-0.04990008,-0.31540722
2910.15625,-0.06140229,-0.32717773
2914.0625,-0.05042747,-0.32677537
2917.96875,-0.04444462,-0.32201964
2921.875,-0.05136840,-0.32406792
2925.78125,-0.04339920,-0.33262539
2929.6875,-0.05189211,-0.33254814
2933.59375,-0.06655947,-0.30727589
2937.5,-0.02448951,-0.25613704
2941.40625,-0.02036878,-0.19539571
2945.3125,-0.01973893,-0.14235276
2949.21875,-0.01293871,-0.10321275
2953.125,0.00672327,-0.07432698
2957.03125,-0.00310976,-0.04740291
2960.9375,0.00176100,-0.01425804
2964.84375,0.01534721,0.02689086
2968.75,0.03849127,0.06929583
2972.65625,0.01318150,0.10380057
2976.5625,0.04850181,0.12583508
2980.46875,0.02948026,0.13639806
2984.375,0.02532508,0.13786274
2988.28125,0.05337087,0.13032915
2992.1875,0.03509339,0.11465207
2996.09375,0.01696271,0.09659296
3000.0,0.02294549,0.08078156
3003.90625,0.03161164,0.06194319
3007.8125,0.02661850,0.02946432
3011.71875,-0.00202138,-0.02064818
3015.625,-0.00204452,-0.08371204
3019.53125,-0.00888855,-0.15315169
3023.4375,-0.03592091,-0.22405195
3027.34375,-0.03451116,-0.29240474
3031.25,-0.04926825,-0.35496768
3035.15625,-0.06464294,-0.40990320
3039.0625,-0.07235970,-0.45708731
3042.96875,-0.07255357,-0.49705735
3046.875,-0.07835101,-0.52786040
3050.78125,-0.08913152,-0.54395318
3054.6875,-0.08927341,-0.54099667
3058.59375,-0.07075388,-0.52083719
3062.5,-0.07965240,-0.48964196
3066.40625,-0.06793189,-0.45329413
3070.3125,-0.05883132,-0.41671312
3074.21875,-0.05943991,-0.38403335
3078.125,-0.03129293,-0.35463864
3082.03125,-0.05953758,-0.32016322
3085.9375,-0.03037038,-0.27169546
3089.84375,-0.03398279,-0.21302637
3093.75,0.00204069,-0.16157866
3097.65625,0.00983676,-0.12978616
3101.5625,-0.02492354,-0.10829223
3105.46875,-0.00482938,-0.07579453
3109.375,0.02198865,-0.02461680
3113.28125,0.02948360,0.03153559
3117.1875,0.03346764,0.07397802
3121.09375,0.02695607,0.09496278
3125.0,0.03497067,0.09725010
3128.90625,0.03759652,0.08529149
3132.8125,0.02769709,0.06121945
3136.71875,0.03856684,0.02828835
3140.625,-0.00437671,-0.00571843
3144.53125,0.02591546,-0.03244824
3148.4375,0.00075453,-0.05095970
3152.34375,0.01901961,-0.06953308
3156.25,-0.00115550,-0.09870819
3160.15625,-0.01506648,-0.14316326
3164.0625,-0.00576502,-0.19871819
3167.96875,-0.02671953,-0.25340185
3171.875,-0.03179700,-0.29168156
3175.78125,-0.04412059,-0.30356660
3179.6875,-0.02942809,-0.29336396
3183.59375,-0.02621897,-0.27754939
3187.5,-0.02224677,-0.27164575
3191.40625,-0.03786002,-0.27927017
3195.3125,-0.02457125,-0.29304442
3199.21875,-0.03734844,-0.30321571
3203.125,-0.03863634,-0.30550376
3207.03125,-0.03023691,-0.30375260
3210.9375,-0.02379300,-0.30539265
3214.84375,-0.03985622,-0.31337973
3218.75,-0.03795224,-0.32374248
3222.65625,-0.03632464,-0.33030593
3226.5625,-0.03294480,-0.32931611
3230.46875,-0.04451375,-0.32151946
3234.375,-0.02139520,-0.31325087
3238.28125,-0.03880540,-0.31310809
3242.1875,-0.02893372,-0.32354045
3246.09375,-0.04502435,-0.33650640
3250.0,-0.03151797,-0.33961511
3253.90625,-0.03179619,-0.32651463
3257.8125,-0.04206635,-0.30188262
3261.71875,-0.01301966,-0.27832532
3265.625,-0.03267827,-0.26839989
3269.53125,-0.01516342,-0.27689394
3273.4375,-0.02373069,-0.29727384
3277.34375,-0.04126405,-0.31452891
3281.25,-0.03525443,-0.31528527
3285.15625,-0.02204638,-0.29866940
3289.0625,-0.02243748,-0.27641416
3292.96875,-0.01780833,-0.26134753
3296.875,-0.01649997,-0.25592741
3300.78125,-0.02899439,-0.25086579
3304.6875,-0.00395038,-0.23348302
3308.59375,-0.02172868,-0.19761382
3312.5,0.01536313,-0.14754856
3316.40625,0.00785985,-0.09491229
3320.3125,0.01309452,-0.05303785
3324.21875,0.02337351,-0.03264686
3328.125,0.03261972,-0.03720781
3332.03125,0.01434538,-0.05870493
3335.9375,0.01142238,-0.08081189
3339.84375,0.01907811,-0.08925866
3343.75,0.00536508,-0.08034056
3347.65625,0.01477827,-0.06361758
3351.5625,0.04054730,-0.05814286
3355.46875,0.00250880,-0.08049423
3359.375,0.01553281,-0.13178557
3363.28125,-0.01723308,-0.19627582
3367.1875,-0.00647021,-0.25320092
3371.09375,-0.02373445,-0.29158017
3375.0,-0.03074975,-0.31726336
3378.90625,-0.03338775,-0.34804520
3382.8125,-0.02914023,-0.39967781
3386.71875,-0.05751793,-0.47234532
3390.625,-0.06751315,-0.54972219
3394.53125,-0.08929157,-0.61244345
3398.4375,-0.07868143,-0.65305907
3402.34375,-0.09622715,-0.67946589
3406.25,-0.09046513,-0.70666957
3410.15625,-0.10771251,-0.74493051
3414.0625,-0.09238464,-0.79164666
3417.96875,-0.14193352,-0.83311486
3421.875,-0.12422778,-0.85623032
3425.78125,-0.10845950,-0.85537565
3429.6875,-0.11478528,-0.82206160
3433.59375,-0.10129156,-0.73138410
3437.5,-0.06172857,-0.54622841
3441.40625,-0.02313028,-0.23619418
3445.3125,0.06917101,0.20682342
3449.21875,0.19568542,0.76915234
3453.125,0.30243680,1.43047285
3457.03125,0.41706431,2.17463923
3460.9375,0.57275790,2.97967291
3464.84375,0.73069292,3.79865122
3468.75,0.88528925,4.55669403
3472.65625,0.97199821,5.16778708
3476.5625,1.04065168,5.55406189
3480.46875,1.07678568,5.65831661
3484.375,1.04134190,5.45590401
3488.28125,0.94244015,4.96590042
3492.1875,0.80973208,4.25008345
3496.09375,0.65394145,3.39646506
3500.0,0.50121534,2.49749565
3503.90625,0.32140276,1.63223398
3507.8125,0.20860069,0.85594541
3511.71875,0.06420130,0.19832063
3515.625,-0.02547158,-0.33239841
3519.53125,-0.08622292,-0.74240541
3523.4375,-0.14806688,-1.04224598
3527.34375,-0.20881836,-1.24020779
3531.25,-0.20072730,-1.34707844
3535.15625,-0.20065743,-1.38210738
3539.0625,-0.21770234,-1.36699879
3542.96875,-0.20816515,-1.31669986
3546.875,-0.18217808,-1.24056983
3550.78125,-0.18218246,-1.14932680
3554.6875,-0.12672654,-1.05507767
3558.59375,-0.15491641,-0.96318531
3562.5,-0.12194083,-0.86890405
3566.40625,-0.09586514,-0.76678932
3570.3125,-0.08094699,-0.66174895
3574.21875,-0.06356088,-0.56832784
3578.125,-0.05138856,-0.50030905
3582.03125,-0.04800358,-0.46108642
3585.9375,-0.02418569,-0.44154584
3589.84375,-0.05733881,-0.42626745
3593.75,-0.02679058,-0.40436316
3597.65625,-0.03159280,-0.37675560
3601.5625,-0.01858099,-0.35280374
3605.46875,-0.01541636,-0.33930114
3609.375,-0.02746231,-0.33286357
3613.28125,-0.02305244,-0.32336217
3617.1875,-0.00491008,-0.30396739
3621.09375,-0.00935693,-0.27662113
3625.0,-0.02075738,-0.24999955
3628.90625,0.01303266,-0.23339984
3632.8125,0.01770856,-0.22755446
3636.71875,-0.02573789,-0.22131486
3640.625,-0.00234157,-0.20517509
3644.53125,0.02679341,-0.18592663
3648.4375,0.00914243,-0.17836577
3652.34375,0.00578522,-0.18559375
3656.25,0.00429283,-0.19549368
3660.15625,0.00409714,-0.19340058
3664.0625,0.01184873,-0.17386708
3667.96875,0.01144507,-0.14421682
3671.875,0.03032540,-0.11977039
3675.78125,0.01944534,-0.11203767
3679.6875,0.02110044,-0.11875281
3683.59375,0.01331666,-0.12671298
3687.5,0.02753652,-0.12437481
3691.40625,0.01672339,-0.11050864
3695.3125,0.02346363,-0.09330696
3699.21875,0.03513904,-0.08478343
3703.125,0.02286794,-0.09487651
3707.03125,0.01926415,-0.12705849
3710.9375,0.01120422,-0.17680691
3714.84375,0.00050435,-0.23353311
3718.75,-0.00954439,-0.28614989
3722.65625,-0.01997318,-0.32968247
3726.5625,-0.01563750,-0.36719185
3730.46875,-0.04616585,-0.40597463
3734.375,-0.02515096,-0.45254397
3738.28125,-0.04835003,-0.50782436
3742.1875,-0.06451177,-0.56363809
3746.09375,-0.06733580,-0.60647494
3750.0,-0.07479493,-0.62903315
3753.90625,-0.06956686,-0.63942075
3757.8125,-0.08518847,-0.65877956
3761.71875,-0.06916198,-0.70720297
3765.625,-0.10081399,-0.78769743
3769.53125,-0.13035494,-0.88323426
3773.4375,-0.12651363,-0.97064316
3777.34375,-0.15767966,-1.03535485
3781.25,-0.14649233,-1.06965649
3785.15625,-0.13409965,-1.05250657
3789.0625,-0.11592246,-0.92472768
3792.96875,-0.07744175,-0.58622849
3796.875,0.04581555,0.06620250
3800.78125,0.25478622,1.07826126
3804.6875,0.47120479,2.39311600
3808.59375,0.72967362,3.84118295
3812.5,0.98671699,5.16548014
3816.40625,1.17652583,6.08541059
3820.3125,1.22184575,6.38808346
3824.21875,1.13865387,6.00542593
3828.125,0.96240872,5.03494740
3832.03125,0.72126639,3.69874263
3835.9375,0.44813249,2.26602340
3839.84375,0.21179639,0.97130191
3843.75,0.04415821,-0.04174803
3847.65625,-0.09427745,-0.73284322
3851.5625,-0.16250777,-1.14103711
3855.46875,-0.20302965,-1.34487009
3859.375,-0.19262971,-1.42177820
3863.28125,-0.22987634,-1.42030096
3867.1875,-0.20858076,-1.36017358
3871.09375,-0.18969445,-1.25527108
3875.0,-0.15988915,-1.13061774
3878.90625,-0.12966469,-1.01525044
3882.8125,-0.12692280,-0.92381740
3886.71875,-0.11263610,-0.85036302
3890.625,-0.10757558,-0.78066045
3894.53125,-0.08729683,-0.70897865
3898.4375,-0.06066538,-0.64212054
3902.34375,-0.05937149,-0.58864719
3906.25,-0.06610043,-0.54821855
3910.15625,-0.05297180,-0.51420939
3914.0625,-0.04287510,-0.48360029
3917.96875,-0.03189477,-0.45943171
3921.875,-0.03958982,-0.44356447
3925.78125,-0.02987232,-0.43024069
3929.6875,-0.04304950,-0.40936822
3933.59375,-0.02950226,-0.37684155
3937.5,0.00903004,-0.33871701
3941.40625,-0.03171174,-0.30327353
3945.3125,-0.00506752,-0.27344191
3949.21875,0.00548368,-0.24856421
3953.125,0.00160396,-0.22757968
3957.03125,-0.00100015,-0.20979521
3960.9375,0.00994163,-0.19737552
3964.84375,0.01201407,-0.19541177
3968.75,0.01198257,-0.20497173
3972.65625,-0.00908166,-0.21776231
3976.5625,0.01186072,-0.22129409
3980.46875,0.00335655,-0.20896764
3984.375,0.00695655,-0.18477766
3988.28125,0.01619363,-0.15993546
3992.1875,0.02122027,-0.14378139
3996.09375,0.02454783,-0.13524337
4000.0,0.00832611,-0.12459507
4003.90625,0.02613017,-0.10592159
4007.8125,0.03014046,-0.08557307
4011.71875,0.03092652,-0.07571044
4015.625,0.03534836,-0.08138689
4019.53125,0.01837169,-0.09640017
4023.4375,0.01943493,-0.11076728
4027.34375,0.03266299,-0.11960884
4031.25,0.00730497,-0.12506811
4035.15625,0.02672983,-0.13313828
4039.0625,0.01781264,-0.14839269
4042.96875,0.01905719,-0.16734450
4046.875,0.00114143,-0.17761979
4050.78125,0.00910447,-0.16934888
4054.6875,0.01646467,-0.14893231
4058.59375,0.02347017,-0.13809860
4062.5,0.02001479,-0.15662512
4066.40625,0.00181215,-0.20527573
4070.3125,-0.00541200,-0.26482114
4074.21875,-0.01942297,-0.31093150
4078.125,-0.01114828,-0.33179492
4082.03125,-0.02546322,-0.33606178
4085.9375,-0.02150229,-0.34703323
4089.84375,-0.01356219,-0.38555330
4093.75,-0.04007576,-0.45166892
4097.65625,-0.06183400,-0.52185261
4101.5625,-0.05724788,-0.56688648
4105.46875,-0.06617084,-0.57310057
4109.375,-0.06336556,-0.54844934
4113.28125,-0.03214912,-0.51176226
4117.1875,-0.04235273,-0.47607732
4121.09375,-0.05903959,-0.44229287
4125.0,-0.02721421,-0.40839502
4128.90625,-0.01285356,-0.37677363
4132.8125,-0.02405191,-0.34700209
4136.71875,-0.01865654,-0.30915782
4140.625,-0.00471986,-0.25170571
4144.53125,0.01301199,-0.17308854
4148.4375,0.02762875,-0.08304083
4152.34375,0.04425238,0.00386007
4156.25,0.05417790,0.07374413
4160.15625,0.06255552,0.11645363
4164.0625,0.07223477,0.12969333
4167.96875,0.07000063,0.12367999
4171.875,0.04827270,0.11764789
4175.78125,0.06790611,0.12494127
4179.6875,0.07423725,0.14096473
4183.59375,0.06498801,0.14897832
4187.5,0.07778514,0.13760807
4191.40625,0.05802861,0.11120918
4195.3125,0.04512571,0.08293423
4199.21875,0.06603070,0.05921610
4203.125,0.04798098,0.03381315
4207.03125,0.03301673,-0.00497312
4210.9375,0.03131842,-0.06623641
4214.84375,0.02250057,-0.15187743
4218.75,0.00346386,-0.25175509
4222.65625,-0.04010837,-0.34460542
4226.5625,-0.02801728,-0.41055930
4230.46875,-0.03371577,-0.44391954
4234.375,-0.04717645,-0.45373067
4238.28125,-0.03874461,-0.45573309
4242.1875,-0.03114301,-0.46276775
4246.09375,-0.05422741,-0.47763324
4250.0,-0.06396832,-0.49556187
4253.90625,-0.02769816,-0.51416969
4257.8125,-0.06019403,-0.53703797
4261.71875,-0.07523236,-0.57056522
4265.625,-0.06820054,-0.62427515
4269.53125,-0.08286035,-0.71022749
4273.4375,-0.11898825,-0.83328635
4277.34375,-0.12519802,-0.97715032
4281.25,-0.15781493,-1.09255648
4285.15625,-0.16015346,-1.09169698
4289.0625,-0.10629376,-0.85776901
4292.96875,-0.00174188,-0.27770093
4296.875,0.14878835,0.70151764
4300.78125,0.39241409,2.00786996
4304.6875,0.64872378,3.41224408
4308.59375,0.91054446,4.57608843
4312.5,0.99035960,5.17764235
4316.40625,0.99183071,5.05037975
4320.3125,0.81567496,4.25194883
4324.21875,0.57597417,3.02693534
4328.125,0.33615130,1.69074786
4332.03125,0.12727053,0.50473595
4335.9375,-0.02067478,-0.39220473
4339.84375,-0.12966207,-0.97823405
4343.75,-0.19653280,-1.29993331
4347.65625,-0.22106047,-1.42299664
4351.5625,-0.21106590,-1.40518546
4355.46875,-0.19544874,-1.29088414
4359.375,-0.15850209,-1.11670351
4363.28125,-0.13601783,-0.91811174
4367.1875,-0.09218518,-0.73007751
4371.09375,-0.05300617,-0.57897186
4375.0,-0.04079759,-0.47131947
4378.90625,-0.03864833,-0.39268044
4382.8125,-0.01937479,-0.32241458
4386.71875,-0.01228784,-0.25113663
4390.625,0.03010235,-0.18359758
4394.53125,0.00391487,-0.12824118
4398.4375,0.02993023,-0.08995069
4402.34375,0.02186989,-0.07266718
4406.25,0.03414111,-0.08105262
4410.15625,0.02356011,-0.11399232
4414.0625,0.00763703,-0.15924557
4417.96875,0.00327490,-0.19983442
4421.875,0.00306047,-0.22663283
4425.78125,0.00015932,-0.24291305
4429.6875,-0.01251683,-0.25818649
4433.59375,-0.01081858,-0.28043610
4437.5,0.00469710,-0.31140137
4441.40625,-0.03895645,-0.34468096
4445.3125,-0.01888671,-0.36953187
4449.21875,-0.03568666,-0.37938508
4453.125,-0.02455582,-0.37683898
4457.03125,-0.01774564,-0.37055966
4460.9375,-0.02843655,-0.36717588
4464.84375,-0.01719334,-0.36503029
4468.75,-0.04301873,-0.35651591
4472.65625,-0.00686508,-0.33788750
4476.5625,-0.02236809,-0.31512880
4480.46875,-0.00150112,-0.29678151
4484.375,0.00039032,-0.28009024
4488.28125,-0.02482006,-0.24835554
4492.1875,0.00575965,-0.18795006
4496.09375,0.02647704,-0.10692947
4500.0,0.05157848,-0.02975607
4503.90625,0.04529275,0.02742941
4507.8125,0.05337653,0.07041018
4511.71875,0.04100947,0.11323235
4515.625,0.08178348,0.15579201
4519.53125,0.09167196,0.18273155
4523.4375,0.07423178,0.18586813
4527.34375,0.07351830,0.17971289
4531.25,0.05724970,0.18765423
4535.15625,0.08600574,0.21435159
4539.0625,0.10477319,0.23757485
4542.96875,0.07617133,0.22865134
4546.875,0.07635708,0.17728411
4550.78125,0.05991205,0.09659452
4554.6875,0.03261906,0.00972651
4558.59375,0.05060092,-0.06561020
4562.5,0.00926048,-0.12297630
4566.40625,0.01077997,-0.16530165
4570.3125,0.00594016,-0.20222674
4574.21875,0.00286219,-0.24605061
4578.125,-0.01235945,-0.30414510
4582.03125,-0.02132329,-0.37300235
4585.9375,-0.04245079,-0.43992236
4589.84375,-0.05464837,-0.49191701
4593.75,-0.04264905,-0.52439380
4597.65625,-0.05435685,-0.54159617
4601.5625,-0.06216085,-0.55056733
4605.46875,-0.06048591,-0.55612463
4609.375,-0.04826595,-0.55728453
4613.28125,-0.06009246,-0.54418117
4617.1875,-0.04807075,-0.50262576
4621.09375,-0.04434367,-0.42857581
4625.0,-0.01439070,-0.33839318
4628.90625,-0.00285132,-0.25981411
4632.8125,0.02556257,-0.20876612
4636.71875,-0.00717288,-0.17599234
4640.625,0.01176987,-0.13962655
4644.53125,0.03953864,-0.08873258
4648.4375,0.03393736,-0.03100771
4652.34375,0.03964416,0.01725199
4656.25,0.07001594,0.04376055
4660.15625,0.05016702,0.04879474
4664.0625,0.04378419,0.04514141
4667.96875,0.04396817,0.04531819
4671.875,0.06461656,0.04930385
4675.78125,0.06383817,0.04972938
4679.6875,0.04217852,0.04545945
4683.59375,0.04429457,0.04177083
4687.5,0.05919924,0.03921696
4691.40625,0.05574056,0.03106334
4695.3125,0.03668630,0.01141899
4699.21875,0.04721838,-0.01997957
4703.125,0.04190260,-0.05914203
4707.03125,0.00904481,-0.10002997
4710.9375,0.02236043,-0.13791002
4714.84375,0.02713376,-0.17083807
4718.75,0.01179645,-0.19496886
4722.65625,-0.00994173,-0.20323804
4726.5625,0.00993529,-0.19489759
4730.46875,0.02050658,-0.18121350
4734.375,0.02910027,-0.17464827
4738.28125,-0.01706205,-0.17605187
4742.1875,0.04003058,-0.17695251
4746.09375,-0.00516089,-0.17040373
4750.0,0.01968481,-0.15816030
4753.90625,0.02288184,-0.15135098
4757.8125,0.01967007,-0.16262323
4761.71875,0.00931531,-0.19381832
4765.625,-0.00699691,-0.23254493
4769.53125,0.01360758,-0.26060379
4773.4375,-0.00363510,-0.26426211
4777.34375,-0.02674531,-0.24253547
4781.25,0.03581312,-0.21140730
4785.15625,0.00852944,-0.19325522
4789.0625,0.01993120,-0.19558340
4792.96875,-0.01472117,-0.20583743
4796.875,0.01206615,-0.21128164
4800.78125,0.01200958,-0.21729141
4804.6875,0.01037348,-0.24022342
4808.59375,-0.00941277,-0.28604957
4812.5,-0.02419031,-0.34195971
4816.40625,-0.01238979,-0.38775465
4820.3125,-0.03740465,-0.41131493
4824.21875,-0.03275948,-0.41443324
4828.125,-0.01379471,-0.40756369
4832.03125,-0.03109583,-0.40011325
4835.9375,-0.02756094,-0.39717925
4839.84375,-0.03524822,-0.40498039
4843.75,-0.02012467,-0.43148145
4847.65625,-0.03586442,-0.47432372
4851.5625,-0.05510414,-0.50944906
4855.46875,-0.03267638,-0.49428439
4859.375,-0.03181090,-0.38059753
4863.28125,0.02269268,-0.12636440
4867.1875,0.11687441,0.29644939
4871.09375,0.20192854,0.89633363
4875.0,0.35141748,1.65346742
4878.90625,0.49181250,2.50558829
4882.8125,0.65804988,3.34103727
4886.71875,0.79874748,4.01773930
4890.625,0.84499419,4.40805244
4894.53125,0.86951160,4.44324970
4898.4375,0.80301630,4.13022089
4902.34375,0.68912935,3.53568053
4906.25,0.53666538,2.75280976
4910.15625,0.39883810,1.87326705
4914.0625,0.24212842,0.98025215
4917.96875,0.07088678,0.15358678
4921.875,-0.06362154,-0.53599292
4925.78125,-0.13496439,-1.04539382
4929.6875,-0.20582588,-1.37025476
4933.59375,-0.22504652,-1.53829527
4937.5,-0.24388713,-1.59333420
4941.40625,-0.24179146,-1.57903707
4945.3125,-0.22510940,-1.52648914
4949.21875,-0.21963190,-1.44970369
4953.125,-0.19360866,-1.35066009
4957.03125,-0.18339756,-1.22868741
4960.9375,-0.14151148,-1.08663046
4964.84375,-0.12734160,-0.93197435
4968.75,-0.08740652,-0.77627736
4972.65625,-0.07431073,-0.63382727
4976.5625,-0.04068581,-0.51660365
4980.46875,-0.01749407,-0.42580804
4984.375,-0.02288484,-0.34795132
4988.28125,-0.00028616,-0.26349908
4992.1875,0.01179325,-0.16322052
4996.09375,0.04409838,-0.05703361
5000.0,0.06605773,0.03333727
5003.90625,0.06464662,0.09096948
5007.8125,0.05745953,0.11450116
5011.71875,0.08480147,0.11547028
5015.625,0.05294302,0.10837889
5019.53125,0.09131929,0.10393963
5023.4375,0.06602596,0.10869421
5027.34375,0.03954352,0.12336903
5031.25,0.10227077,0.13709275
5035.15625,0.08565234,0.13147295
5039.0625,0.04947649,0.09714956
5042.96875,0.05813279,0.04099691
5046.875,0.04711220,-0.02304461
5050.78125,0.04407341,-0.08235698
5054.6875,0.01803047,-0.12682681
5058.59375,0.02069228,-0.15084675
5062.5,0.02780030,-0.15677945
5066.40625,0.01863788,-0.15434003
5070.3125,0.02476389,-0.15656777
5074.21875,0.00648870,-0.17565943
5078.125,0.02971748,-0.21746850
5082.03125,-0.01018543,-0.27518436
5085.9375,-0.00072141,-0.32932767
5089.84375,-0.02821128,-0.35853955
5093.75,-0.02084586,-0.35456365
5097.65625,0.01023705,-0.32862103
5101.5625,-0.01633526,-0.30286089
5105.46875,0.00248103,-0.29425669
5109.375,-0.00317951,-0.30334684
5113.28125,-0.01334582,-0.31493601
5117.1875,-0.00331308,-0.31114921
5121.09375,-0.00369119,-0.28732455
5125.0,-0.00191178,-0.25631034
5128.90625,0.01421161,-0.23744243
5132.8125,0.01396201,-0.23999192
5136.71875,-0.00010739,-0.25480855
5140.625,-0.00363592,-0.26141074
5144.53125,0.01084958,-0.24414712
5148.4375,0.00632723,-0.20441955
5152.34375,0.01987497,-0.16176942
5156.25,0.03945213,-0.14218526
5160.15625,0.01791159,-0.15880765
5164.0625,0.00785295,-0.20168352
5167.96875,0.00704746,-0.24725220
5171.875,0.00013301,-0.27520904
5175.78125,0.00136363,-0.27623683
5179.6875,0.00260630,-0.25139776
5183.59375,0.01289421,-0.21090247
5187.5,0.01607186,-0.17101143
5191.40625,0.03419660,-0.14411259
5195.3125,0.02498517,-0.12733744
5199.21875,0.03221190,-0.10389063
5203.125,0.02492776,-0.06018071
5207.03125,0.06423189,-0.00081438
5210.9375,0.05532308,0.05591525
5214.84375,0.07503606,0.09478102
5218.75,0.06683948,0.11308925
5222.65625,0.07802252,0.11763772
5226.5625,0.05898148,0.11680859
5230.46875,0.07111015,0.11416695
5234.375,0.09399972,0.10796507
5238.28125,0.04410689,0.09581592
5242.1875,0.06808469,0.07584592
5246.09375,0.06710190,0.04314051
5250.0,0.04173291,-0.01010632
5253.90625,0.03264273,-0.09065002
5257.8125,0.02217161,-0.20115292
5261.71875,-0.02126171,-0.33764601
5265.625,-0.03105539,-0.48900300
5269.53125,-0.07093028,-0.63982743
5273.4375,-0.09146796,-0.77222955
5277.34375,-0.10814818,-0.86403865
5281.25,-0.10844398,-0.88654697
5285.15625,-0.09273474,-0.80426097
5289.0625,-0.05129605,-0.57813960
5292.96875,-0.00522704,-0.17627090
5296.875,0.13916348,0.40849799
5300.78125,0.26190060,1.14622688
5304.6875,0.40927926,1.97234130
5308.59375,0.55142647,2.79806328
5312.5,0.69188309,3.52074647
5316.40625,0.79754353,4.03835821
5320.3125,0.83840454,4.27138519
5324.21875,0.79302931,4.18190622
5328.125,0.74478626,3.78012133
5332.03125,0.64861584,3.12372899
5335.9375,0.44157442,2.31218743
5339.84375,0.32308403,1.46438611
5343.75,0.17444412,0.68427253
5347.65625,0.05183408,0.03884452
5351.5625,-0.01699635,-0.44239315
5355.46875,-0.10599960,-0.75870347
5359.375,-0.12115410,-0.93060255
5363.28125,-0.11646283,-0.99189276
5367.1875,-0.13356200,-0.97733337
5371.09375,-0.12339804,-0.91259658
5375.0,-0.09859740,-0.81473833
5378.90625,-0.08513924,-0.69869649
5382.8125,-0.04047087,-0.58073580
5386.71875,-0.05248007,-0.47663093
5390.625,-0.01520531,-0.39771539
5394.53125,-0.02953681,-0.34837279
5398.4375,0.00243083,-0.32583895
5402.34375,-0.00225040,-0.32104489
5406.25,-0.03095411,-0.32173944
5410.15625,0.00026251,-0.31946850
5414.0625,-0.01520088,-0.31502846
5417.96875,-0.01106410,-0.31587565
5421.875,0.00927643,-0.32687059
5425.78125,-0.02766798,-0.34257284
5429.6875,-0.03079460,-0.35154340
5433.59375,-0.00310937,-0.35056156
5437.5,-0.02173675,-0.34946361
5441.40625,-0.00543999,-0.35812259
5445.3125,-0.02071849,-0.37230268
5449.21875,-0.03483951,-0.37681711
5453.125,-0.02309256,-0.36302775
5457.03125,-0.00462392,-0.33893394
5460.9375,-0.00505458,-0.31858006
5464.84375,-0.01304767,-0.30568022
5468.75,-0.00855086,-0.29259858
5472.65625,-0.00650925,-0.27266592
5476.5625,-0.00826211,-0.24894467
5480.46875,0.02651824,-0.23021813
5484.375,0.00628999,-0.21927752
5488.28125,-0.00463052,-0.20836401
5492.1875,0.00611340,-0.18953976
5496.09375,0.02315918,-0.16648154
5500.0,0.02384176,-0.15161358
5503.90625,0.01553098,-0.15395372
5507.8125,0.00989917,-0.17216653
5511.71875,0.01907375,-0.19522740
5515.625,-0.00143123,-0.20724337
5519.53125,0.00350416,-0.19695836
5523.4375,0.02978634,-0.16659988
5527.34375,0.01449527,-0.12931599
5531.25,0.02571468,-0.09771238
5535.15625,0.03706964,-0.07608227
5539.0625,0.03131661,-0.06103162
5542.96875,0.02514943,-0.04797310
5546.875,0.05306213,-0.03736299
5550.78125,0.03723031,-0.03284199
5554.6875,0.02700741,-0.03451448
5558.59375,0.04290567,-0.03827055
5562.5,0.04138014,-0.04060885
5566.40625,0.02810644,-0.04145103
5570.3125,0.04157893,-0.04328962
5574.21875,0.04019687,-0.04738645
5578.125,0.01891887,-0.05094286
5582.03125,0.04124615,-0.05134385
5585.9375,0.03919325,-0.05177069
5589.84375,0.03556506,-0.05763956
5593.75,0.01773715,-0.06985546
5597.65625,0.02911241,-0.08729380
5601.5625,0.02614961,-0.11461878
5605.46875,0.01751700,-0.16344908
5609.375,-0.01343154,-0.24635054
5613.28125,-0.01455721,-0.37113270
5617.1875,-0.06871042,-0.53890431
5621.09375,-0.09516606,-0.74382055
5625.0,-0.11758557,-0.96764976
5628.90625,-0.17695536,-1.16552854
5632.8125,-0.18961582,-1.25525439
5636.71875,-0.14891380,-1.12767959
5640.625,-0.09323942,-0.68341893
5644.53125,0.04417791,0.11013633
5648.4375,0.24268654,1.16488063
5652.34375,0.46682671,2.26405334
5656.25,0.60433894,3.12461662
5660.15625,0.70320457,3.50415754
5664.0625,0.65849108,3.29846954
5667.96875,0.50967038,2.58256197
5671.875,0.31328952,1.57301939
5675.78125,0.12018269,0.53094649
5679.6875,-0.01802526,-0.33879691
5683.59375,-0.13545634,-0.94033474
5687.5,-0.18356928,-1.27810419
5691.40625,-0.20886487,-1.40955913
5695.3125,-0.22714049,-1.39711523
5699.21875,-0.20131162,-1.28740537
5703.125,-0.15222505,-1.11507726
5707.03125,-0.12773231,-0.90855974
5710.9375,-0.09476802,-0.68920308
5714.84375,-0.04461021,-0.47215599
5718.75,-0.01797834,-0.27151519
5722.65625,0.02519390,-0.10292938
5726.5625,0.05195550,0.02052570
5730.46875,0.04248872,0.09435386
5734.375,0.05432777,0.12214375
5738.28125,0.06972579,0.11056948
5742.1875,0.04547554,0.06920540
5746.09375,0.04687417,0.01345439
5750.0,0.02337634,-0.03895741
5753.90625,0.01626714,-0.07842921
5757.8125,0.00992121,-0.11102554
5761.71875,0.03213511,-0.15260248
5765.625,-0.00879999,-0.21163215
5769.53125,-0.01957898,-0.27880618
5773.4375,-0.02845116,-0.33500198
5777.34375,-0.03106692,-0.36653891
5781.25,-0.02732217,-0.37267154
5785.15625,-0.03762269,-0.36398005
5789.0625,-0.01841113,-0.35590696
5792.96875,-0.04222218,-0.35994735
5796.875,-0.02759861,-0.37728426
5800.78125,-0.04039642,-0.39942709
5804.6875,-0.03388770,-0.41431075
5808.59375,-0.05476169,-0.41374895
5812.5,-0.03428277,-0.39818630
5816.40625,-0.02815355,-0.37365708
5820.3125,-0.02428504,-0.34307063
5824.21875,-0.04095390,-0.30428240
5828.125,0.00176562,-0.25817043
5832.03125,-0.00727560,-0.21243510
5835.9375,-0.00205128,-0.17468147
5839.84375,0.00547887,-0.14673114
5843.75,0.01050917,-0.12666324
5847.65625,0.02211274,-0.11130232
5851.5625,0.00517762,-0.09618336
5855.46875,0.01166392,-0.07842168
5859.375,0.02795381,-0.06132763
5863.28125,0.02711877,-0.05217389
5867.1875,0.02111387,-0.05369388
5871.09375,0.01846796,-0.06013742
5875.0,0.01464047,-0.06231740
5878.90625,0.02295579,-0.05491032
5882.8125,0.03665818,-0.03895261
5886.71875,0.00857739,-0.02065029
5890.625,0.03839684,-0.01032338
5894.53125,0.02923428,-0.01877940
5898.4375,0.01287115,-0.04942711
5902.34375,0.02715152,-0.09333481
5906.25,-0.00013326,-0.13265079
5910.15625,-0.00338739,-0.15053453
5914.0625,0.00202090,-0.14225329
5917.96875,0.01276245,-0.11858971
5921.875,0.01387644,-0.09725880
5925.78125,0.01138493,-0.09050248
5929.6875,0.01785904,-0.09968954
5933.59375,-0.01110679,-0.11967040
5937.5,0.01624067,-0.14782919
5941.40625,-0.01409865,-0.18952730
5945.3125,-0.01672769,-0.25575620
5949.21875,-0.03090351,-0.35534230
5953.125,-0.06272771,-0.48636812
5957.03125,-0.09278428,-0.63305670
5960.9375,-0.11685838,-0.77072573
5964.84375,-0.12746741,-0.86957395
5968.75,-0.12622660,-0.88653469
5972.65625,-0.10210618,-0.75241894
5976.5625,-0.05134720,-0.37803462
5980.46875,0.07593166,0.30635378
5984.375,0.25359178,1.29506600
5988.28125,0.48494104,2.47211933
5992.1875,0.66848665,3.62361407
5996.09375,0.87201905,4.49681997
6000.0,0.92418569,4.88425207
6003.90625,0.88199192,4.69564724
6007.8125,0.75578266,3.98307943
6011.71875,0.55920023,2.91413927
6015.625,0.32697657,1.71373498
6019.53125,0.13237672,0.59639871
6023.4375,-0.03736129,-0.29074499
6027.34375,-0.13198702,-0.89306456
6031.25,-0.19363503,-1.23327434
6035.15625,-0.23545989,-1.37238789
6039.0625,-0.21642067,-1.37415540
6042.96875,-0.21298954,-1.28685403
6046.875,-0.18338406,-1.14010262
6050.78125,-0.15825102,-0.95157915
6054.6875,-0.11103626,-0.73754323
6058.59375,-0.05978864,-0.51839781
6062.5,-0.05029957,-0.31659672
6066.40625,0.00217931,-0.15180765
6070.3125,0.02102286,-0.03495402
6074.21875,0.03608913,0.03788318
6078.125,0.01614981,0.08200824
6082.03125,0.04600473,0.10856213
6085.9375,0.05529154,0.11527587
6089.84375,0.03516047,0.09644265
6093.75,0.03952609,0.05687672
6097.65625,0.00203036,0.01020874
6101.5625,0.02932043,-0.03441689
6105.46875,0.00307676,-0.07871898
6109.375,0.01074791,-0.12807941
6113.28125,-0.03265508,-0.18260610
6117.1875,-0.01280041,-0.23744810
6121.09375,-0.03391304,-0.28786784
6125.0,-0.03043304,-0.33087379
6128.90625,-0.05911414,-0.36558929
6132.8125,-0.06191444,-0.39586860
6136.71875,-0.03250669,-0.42816055
6140.625,-0.07261956,-0.46105659
6144.53125,-0.07264054,-0.48090300
6148.4375,-0.06726135,-0.47430789
6152.34375,-0.07431283,-0.44391882
6156.25,-0.04429557,-0.40801212
6160.15625,-0.03302116,-0.38202542
6164.0625,-0.05611590,-0.36056548
6167.96875,-0.06136605,-0.32316336
6171.875,-0.01887881,-0.26026621
6175.78125,-0.01150594,-0.18740922
6179.6875,-0.00666216,-0.13136783
6183.59375,0.00552053,-0.10688045
6187.5,-0.01097520,-0.10651743
6191.40625,0.00460821,-0.10771952
6195.3125,-0.00357452,-0.08856778
6199.21875,0.00147717,-0.04192745
6203.125,0.03467347,0.02010711
6207.03125,0.01812141,0.07473444
6210.9375,0.05568187,0.10487376
6214.84375,0.03024153,0.11108851
6218.75,0.02163577,0.10713723
6222.65625,0.03790874,0.10221461
6226.5625,0.04813378,0.09197778
6230.46875,0.02985695,0.07038881
6234.375,0.00640495,0.04235066
6238.28125,0.02209971,0.01764844
6242.1875,0.03060475,-0.00094773
6246.09375,0.00459220,-0.01742627
6250.0,-0.00226564,-0.03664915
6253.90625,0.01591681,-0.06251384
6257.8125,0.00235912,-0.09492063
6261.71875,-0.01531189,-0.12555258
6265.625,-0.00915076,-0.14230555
6269.53125,-0.01601340,-0.14049409
6273.4375,-0.00573066,-0.12842016
6277.34375,-0.01051218,-0.12242424
6281.25,-0.00104157,-0.13540921
6285.15625,-0.01014890,-0.16644010
6289.0625,-0.04239412,-0.20203936
6292.96875,-0.02519959,-0.23163792
6296.875,-0.02751987,-0.26071417
6300.78125,-0.04286807,-0.30538648
6304.6875,-0.04774143,-0.37581587
6308.59375,-0.07965180,-0.46714258
6312.5,-0.09762058,-0.56382638
6316.40625,-0.08686131,-0.64763606
6320.3125,-0.11918212,-0.70059872
6324.21875,-0.13470204,-0.70779008
6328.125,-0.09013569,-0.66292953
6332.03125,-0.09346610,-0.56578803
6335.9375,-0.05758654,-0.41044363
6339.84375,-0.02599772,-0.18256557
6343.75,0.03227873,0.12637253
6347.65625,0.10128485,0.50254887
6351.5625,0.18226777,0.90803981
6355.46875,0.26028773,1.29515707
6359.375,0.28804988,1.62218070
6363.28125,0.36809129,1.85802913
6367.1875,0.36670831,1.98012769
6371.09375,0.36552709,1.97446668
6375.0,0.35969204,1.83886278
6378.90625,0.30282044,1.58696449
6382.8125,0.22180627,1.24809146
6386.71875,0.19008164,0.86017060
6390.625,0.08355570,0.46233961
6394.53125,0.02731985,0.09034470
6398.4375,-0.03343549,-0.22964340
6402.34375,-0.06676640,-0.48544279
6406.25,-0.12357794,-0.67552805
6410.15625,-0.12736565,-0.80248779
6414.0625,-0.15818463,-0.86970216
6417.96875,-0.13627462,-0.88099718
6421.875,-0.15240937,-0.84216368
6425.78125,-0.13652281,-0.76462364
6429.6875,-0.09585419,-0.66690159
6433.59375,-0.10047916,-0.56928903
6437.5,-0.08924364,-0.48747826
6441.40625,-0.05151240,-0.43067166
6445.3125,-0.06415083,-0.39905700
6449.21875,-0.07090198,-0.38184595
6453.125,-0.04755054,-0.36509269
6457.03125,-0.06832056,-0.34498131
6460.9375,-0.04061173,-0.33160591
6464.84375,-0.04153193,-0.33784306
6468.75,-0.06610198,-0.36477599
6472.65625,-0.07084800,-0.40091816
6476.5625,-0.06563625,-0.43517879
6480.46875,-0.07189640,-0.46543771
6484.375,-0.08754651,-0.49425593
6488.28125,-0.07181219,-0.52069944
6492.1875,-0.10472200,-0.53774339
6496.09375,-0.08557124,-0.53733546
6500.0,-0.08382632,-0.51788425
6503.90625,-0.07926609,-0.48550430
6507.8125,-0.06775364,-0.44814920
6511.71875,-0.08018642,-0.41081676
6515.625,-0.05112675,-0.37609878
6519.53125,-0.05204188,-0.34500566
6523.4375,-0.04858832,-0.31449682
6527.34375,-0.04759673,-0.27693006
6531.25,-0.03560729,-0.22496681
6535.15625,-0.00741148,-0.15631136
6539.0625,-0.01403108,-0.07435516
6542.96875,0.00689924,0.01129228
6546.875,0.02654785,0.08432723
6550.78125,0.03274953,0.12849846
6554.6875,0.04435723,0.14050631
6558.59375,0.02596435,0.13513079
6562.5,0.01894189,0.13328353
6566.40625,0.04520582,0.14377438
6570.3125,0.03626834,0.15898740
6574.21875,0.04432382,0.16694590
6578.125,0.02807493,0.16229731
6582.03125,0.03838503,0.14552511
6585.9375,0.02947057,0.11777899
6589.84375,0.02257871,0.08036382
6593.75,0.01430005,0.03727495
6597.65625,0.00713068,-0.00489297
6601.5625,-0.00071434,-0.04054102
6605.46875,-0.00645044,-0.06844600
6609.375,-0.00254763,-0.09130128
6613.28125,-0.02532733,-0.11231913
6617.1875,-0.00249481,-0.13282703
6621.09375,-0.02806043,-0.15193570
6625.0,-0.01772030,-0.16748145
6628.90625,-0.03269327,-0.17910248
6632.8125,-0.03598376,-0.19175659
6636.71875,-0.00946807,-0.21255739
6640.625,-0.03790870,-0.23941965
6644.53125,-0.04948399,-0.25616115
6648.4375,-0.04242466,-0.24684113
6652.34375,-0.03721877,-0.21533138
6656.25,-0.00708049,-0.18477678
6660.15625,-0.03007308,-0.17560303
6664.0625,-0.02112102,-0.18669865
6667.96875,-0.04438613,-0.19975038
6671.875,-0.02846647,-0.20013367
6675.78125,-0.02531133,-0.19092676
6679.6875,-0.01278804,-0.18670595
6683.59375,-0.04418966,-0.19793306
6687.5,-0.03043176,-0.22450757
6691.40625,-0.03632982,-0.26024368
6695.3125,-0.05501077,-0.29806253
6699.21875,-0.04635004,-0.33212778
6703.125,-0.05331039,-0.35879606
6707.03125,-0.08283327,-0.37832549
6710.9375,-0.05331069,-0.39685860
6714.84375,-0.06029640,-0.42201528
6718.75,-0.07879712,-0.45248896
6722.65625,-0.09627237,-0.47704357
6726.5625,-0.06813684,-0.48668703
6730.46875,-0.08600213,-0.48185134
6734.375,-0.07600848,-0.46493161
6738.28125,-0.06366969,-0.42913929
6742.1875,-0.06998209,-0.35550967
6746.09375,-0.02531296,-0.21945114
6750.0,0.00457590,-0.00043208
6753.90625,0.06407964,0.31155148
6757.8125,0.13535300,0.71226639
6761.71875,0.21943025,1.18047416
6765.625,0.32255003,1.67968035
6769.53125,0.40030402,2.16653848
6773.4375,0.47847348,2.59935713
6777.34375,0.54208720,2.94004440
6781.25,0.59086502,3.15366769
6785.15625,0.58848816,3.21287847
6789.0625,0.57455444,3.10543108
6792.96875,0.53139085,2.83905911
6796.875,0.45105776,2.44132733
6800.78125,0.36340949,1.95289791
6804.6875,0.25374961,1.41531789
6808.59375,0.17892161,0.86244076
6812.5,0.06956620,0.32318604
6816.40625,-0.03152103,-0.17250393
6820.3125,-0.11360321,-0.59784299
6824.21875,-0.14641260,-0.93824643
6828.125,-0.21216413,-1.19037652
6832.03125,-0.24515660,-1.35460424
6835.9375,-0.25520003,-1.43464565
6839.84375,-0.25879604,-1.44286239
6843.75,-0.24036789,-1.40041208
6847.65625,-0.24565266,-1.33037901
6851.5625,-0.20351470,-1.24885285
6855.46875,-0.21925497,-1.15912163
6859.375,-0.17823419,-1.05470049
6863.28125,-0.17539765,-0.93087733
6867.1875,-0.11808741,-0.79293090
6871.09375,-0.12069390,-0.65261978
6875.0,-0.09505621,-0.52131438
6878.90625,-0.06206637,-0.40845719
6882.8125,-0.03834907,-0.31918672
6886.71875,-0.04869039,-0.24816462
6890.625,-0.02328476,-0.18124303
6894.53125,-0.02162792,-0.10874809
6898.4375,0.00893555,-0.03529484
6902.34375,0.01612560,0.02631828
6906.25,0.02106122,0.06964042
6910.15625,0.02280074,0.10017748
6914.0625,0.03005003,0.12655561
6917.96875,0.02736845,0.14872056
6921.875,0.04240798,0.15705536
6925.78125,0.05222750,0.14392878
6929.6875,0.00726736,0.11362404
6933.59375,0.02408346,0.07694268
6937.5,0.01437570,0.03887478
6941.40625,0.01836034,-0.00212251
6945.3125,-0.00650040,-0.04519987
6949.21875,-0.00468261,-0.08474410
6953.125,-0.02329349,-0.11717040
6957.03125,-0.01014423,-0.14576818
6960.9375,-0.02456195,-0.17763953
6964.84375,-0.03430126,-0.21737789
6968.75,-0.03372852,-0.26278731
6972.65625,-0.04600816,-0.30385423
6976.5625,-0.06556661,-0.32768199
6980.46875,-0.04259531,-0.32917497
6984.375,-0.04806589,-0.31659061
6988.28125,-0.05415754,-0.30467609
6992.1875,-0.04035550,-0.30294853
6996.09375,-0.03661112,-0.30834919
7000.0,-0.06272422,-0.30745524
7003.90625,-0.05684700,-0.29083690
7007.8125,-0.02639309,-0.26690045
7011.71875,-0.02520499,-0.25490004
7015.625,-0.04829396,-0.26312259
7019.53125,-0.05086714,-0.28068939
7023.4375,-0.04178928,-0.29106110
7027.34375,-0.03781580,-0.28735277
7031.25,-0.04886410,-0.27426082
7035.15625,-0.02784179,-0.25966471
7039.0625,-0.04227834,-0.24582550
7042.96875,-0.04044891,-0.22897832
7046.875,-0.01418890,-0.20700563
7050.78125,-0.03280960,-0.18402556
7054.6875,-0.02497527,-0.16680796
7058.59375,-0.01604885,-0.15943561
7062.5,-0.01318872,-0.16023323
7066.40625,-0.02610998,-0.16158481
7070.3125,-0.02033540,-0.15531160
7074.21875,-0.02917946,-0.14124055
7078.125,0.00371989,-0.12823315
7082.03125,-0.00696916,-0.12228731
7085.9375,-0.02508546,-0.11507733
7089.84375,-0.00847856,-0.09062167
7093.75,0.00367563,-0.04450976
7097.65625,0.00472079,0.00694620
7101.5625,0.02485459,0.03807864
7105.46875,0.02323680,0.03585660
7109.375,0.00392031,0.01280919
7113.28125,0.01252655,-0.00232086
7117.1875,0.00082809,0.01173561
7121.09375,0.02104712,0.05148063
7125.0,0.02079932,0.09021516
7128.90625,0.05132254,0.09747676
7132.8125,0.01881167,0.06352896
7136.71875,-0.00990774,0.00658939
7140.625,0.00351413,-0.04624334
7144.53125,0.00812514,-0.08214709
7148.4375,-0.01418822,-0.10545457
7152.34375,-0.01638097,-0.12610695
7156.25,-0.01801747,-0.15143943
7160.15625,-0.01777327,-0.18453814
7164.0625,-0.03245477,-0.22511365
7167.96875,-0.04982398,-0.27221203
7171.875,-0.03819165,-0.32605627
7175.78125,-0.06213425,-0.38489300
7179.6875,-0.06891061,-0.44108060
7183.59375,-0.08571782,-0.48434111
7187.5,-0.08358349,-0.50939900
7191.40625,-0.06986455,-0.51809561
7195.3125,-0.09902027,-0.51521569
7199.21875,-0.08066676,-0.50541264
7203.125,-0.06963519,-0.49139208
7207.03125,-0.07944737,-0.47009948
7210.9375,-0.06702524,-0.43411753
7214.84375,-0.07671718,-0.38312051
7218.75,-0.03961797,-0.33106345
7222.65625,-0.03299694,-0.29366258
7226.5625,-0.03336649,-0.26733705
7230.46875,-0.04665728,-0.22810453
7234.375,-0.02730419,-0.15670103
7238.28125,0.00771062,-0.06118312
7242.1875,0.02683168,0.02935324
7246.09375,0.01929655,0.09009197
7250.0,0.03898241,0.11685957
7253.90625,0.02344594,0.12284191
7257.8125,0.03326446,0.12462066
7261.71875,0.03803983,0.13017982
7265.625,0.04289361,0.13644560
7269.53125,0.01618147,0.13333115
7273.4375,0.03911228,0.10728137
7277.34375,0.03336663,0.04670982
7281.25,-0.01020748,-0.04919180
7285.15625,-0.02973346,-0.16857503
7289.0625,-0.02831216,-0.29380828
7292.96875,-0.05937167,-0.40502042
7296.875,-0.09571095,-0.47963229
7300.78125,-0.06555892,-0.49545494
7304.6875,-0.06805411,-0.43262693
7308.59375,-0.05077241,-0.27073362
7312.5,0.03046884,0.01155505
7316.40625,0.08613194,0.43260568
7320.3125,0.18439423,1.00177455
7324.21875,0.32875007,1.70840621
7328.125,0.46426010,2.50942802
7332.03125,0.61691785,3.32643175
7335.9375,0.76216060,4.05797386
7339.84375,0.84669071,4.60242462
7343.75,0.89404058,4.87919140
7347.65625,0.90860331,4.84210253
7351.5625,0.83211464,4.48990679
7355.46875,0.71788031,3.87207532
7359.375,0.56929994,3.07796526
7363.28125,0.40942591,2.20959187
7367.1875,0.26464477,1.35541081
7371.09375,0.10685442,0.57910216
7375.0,0.01424045,-0.07774885
7378.90625,-0.10603124,-0.58851141
7382.8125,-0.15633132,-0.93864578
7386.71875,-0.20392048,-1.12992132
7390.625,-0.20583068,-1.18632436
7394.53125,-0.19507797,-1.15193141
7398.4375,-0.17334737,-1.07561529
7402.34375,-0.18187654,-0.99083734
7406.25,-0.15366423,-0.90726542
7410.15625,-0.13668844,-0.81964928
7414.0625,-0.12025579,-0.72249562
7417.96875,-0.10604624,-0.61805421
7421.875,-0.07338530,-0.51460892
7425.78125,-0.07947283,-0.42069775
7429.6875,-0.04421281,-0.34259784
7433.59375,-0.03429036,-0.28361240
7437.5,-0.03335778,-0.24007665
7441.40625,-0.03015615,-0.20019509
7445.3125,-0.02854322,-0.15344027
7449.21875,0.01554001,-0.10139399
7453.125,-0.01886101,-0.05626988
7457.03125,0.01939957,-0.02951767
7460.9375,0.01078136,-0.02168261
7464.84375,0.00153595,-0.02110115
7468.75,-0.00620641,-0.01483671
7472.65625,0.02137319,-0.00237660
7476.5625,0.03015272,0.00649330
7480.46875,-0.00199964,0.00712301
7484.375,0.00464618,0.00493820
7488.28125,0.01903074,0.00425145
7492.1875,0.00774884,0.00013558
7496.09375,0.02415599,-0.01624219
7500.0,-0.01108353,-0.04824293
7503.90625,-0.00289430,-0.09189817
7507.8125,-0.03022324,-0.14216809
7511.71875,0.00362543,-0.19685981
7515.625,-0.03692562,-0.25127971
7519.53125,-0.06141000,-0.29434323
7523.4375,-0.04306687,-0.31771907
7527.34375,-0.04952700,-0.32660240
7531.25,-0.03057595,-0.33471322
7535.15625,-0.06251770,-0.34934106
7539.0625,-0.06245678,-0.36599576
7542.96875,-0.05781128,-0.37694207
7546.875,-0.04714390,-0.37975264
7550.78125,-0.06669046,-0.37704179
7554.6875,-0.05165138,-0.37247151
7558.59375,-0.05452950,-0.36765358
7562.5,-0.05939244,-0.35986906
7566.40625,-0.04856423,-0.34254447
7570.3125,-0.04152358,-0.30914229
7574.21875,-0.04414650,-0.25729838
7578.125,-0.00903149,-0.19085294
7582.03125,-0.03009585,-0.11935810
7585.9375,0.01097920,-0.05483356
7589.84375,0.01872009,-0.00497108
7593.75,0.01611806,0.03378593
7597.65625,0.01732693,0.07378330
7601.5625,0.03208531,0.12359128
7605.46875,0.04750990,0.17924608
7609.375,0.05630187,0.22767027
7613.28125,0.05470871,0.25530496
7617.1875,0.06525538,0.25486717
7621.09375,0.04687858,0.23035054
7625.0,0.05472669,0.19753969
7628.90625,0.02961538,0.17410628
7632.8125,0.05241647,0.16422258
7636.71875,0.03837197,0.15340225
7640.625,0.02351108,0.11984397
7644.53125,0.03334541,0.05225150
7648.4375,0.01785310,-0.03847247
7652.34375,-0.03453905,-0.12316191
7656.25,-0.01067905,-0.17576964
7660.15625,-0.03882565,-0.19528760
7664.0625,-0.01825198,-0.20597270
7667.96875,-0.01005790,-0.23454134
7671.875,-0.05395492,-0.28594372
7675.78125,-0.05335791,-0.34156102
7679.6875,-0.06233215,-0.37978160
7683.59375,-0.05860825,-0.39463821
7687.5,-0.05695364,-0.39520937
7691.40625,-0.04948095,-0.39226821
7695.3125,-0.07543594,-0.38826320
7699.21875,-0.04191037,-0.37812328
7703.125,-0.06780355,-0.35639662
7707.03125,-0.04801561,-0.32412660
7710.9375,-0.03123104,-0.29046020
7714.84375,-0.02968617,-0.26472649
7718.75,-0.04218614,-0.24541421
7722.65625,-0.03184543,-0.22067976
7726.5625,-0.02153405,-0.18131459
7730.46875,-0.00945557,-0.13064229
7734.375,0.01157261,-0.08032035
7738.28125,-0.01170608,-0.03840007
7742.1875,0.01458465,-0.00395388
7746.09375,0.02060095,0.02809334
7750.0,0.02333421,0.06008433
7753.90625,0.02462945,0.08863553
7757.8125,0.03872641,0.10677530
7761.71875,0.02697045,0.11019467
7765.625,0.03124144,0.10108593
7769.53125,0.02691018,0.08494175
7773.4375,0.04033731,0.06583196
7777.34375,-0.00567961,0.04493472
7781.25,0.03057155,0.02022336
7785.15625,0.01003026,-0.01133654
7789.0625,0.00780341,-0.04760116
7792.96875,-0.00231368,-0.07908372
7796.875,-0.01473607,-0.09598649
7800.78125,0.00174808,-0.09594564
7804.6875,-0.00297515,-0.08317935
7808.59375,0.01043809,-0.06289097
7812.5,-0.01366269,-0.04121693
7816.40625,0.02088238,-0.02907977
7820.3125,0.00678695,-0.03742549
7824.21875,0.00039600,-0.06476387
7828.125,-0.00537408,-0.09480418
7832.03125,-0.00672622,-0.11049785
7835.9375,-0.01154997,-0.10923182
7839.84375,-0.00561299,-0.10390661
7843.75,-0.00055651,-0.10989261
7847.65625,-0.00481315,-0.13002515
7851.5625,-0.02224373,-0.15168588
7855.46875,-0.01156494,-0.15890397
7859.375,-0.02267565,-0.14800861
7863.28125,-0.01402248,-0.13359778
7867.1875,0.00215797,-0.13985617
7871.09375,-0.01715091,-0.18188955
7875.0,-0.03283808,-0.25163978
7878.90625,-0.05282674,-0.32208207
7882.8125,-0.05418190,-0.36648077
7886.71875,-0.06076178,-0.37595057
7890.625,-0.03437967,-0.36174518
7894.53125,-0.05392700,-0.34229162
7898.4375,-0.04458816,-0.32810703
7902.34375,-0.05221961,-0.31807327
7906.25,-0.04182217,-0.30670047
7910.15625,-0.02296755,-0.29096991
7914.0625,-0.04359983,-0.27037561
7917.96875,-0.03384648,-0.24551286
7921.875,-0.03269587,-0.21957345
7925.78125,-0.00483455,-0.19694909
7929.6875,-0.01918986,-0.17589611
7933.59375,-0.01150450,-0.14458632
7937.5,-0.00532632,-0.08875860
7941.40625,0.00363745,-0.00576569
7945.3125,0.03508966,0.08821472
7949.21875,0.06856203,0.16702664
7953.125,0.03319410,0.21283728
7957.03125,0.06281622,0.22579663
7960.9375,0.05929532,0.21953431
7964.84375,0.04638061,0.21183723
7968.75,0.05790751,0.21494761
7972.65625,0.05827221,0.22712843
7976.5625,0.05080894,0.23333254
7980.46875,0.07852042,0.21831694
7984.375,0.02705581,0.18103272
7988.28125,0.04755013,0.13439977
7992.1875,0.03868120,0.09121007
7996.09375,0.01839978,0.05318844
8000.0,0.01701606,0.01223101
8003.90625,0.01514964,-0.04095183
8007.8125,-0.00429158,-0.10788862
8011.71875,-0.01166221,-0.17886214
8015.625,-0.01837445,-0.23718706
8019.53125,-0.06025600,-0.27016276
8023.4375,-0.02619359,-0.28181955
8027.34375,-0.02329525,-0.29393712
8031.25,-0.04400826,-0.32780492
8035.15625,-0.04705650,-0.38351238
8039.0625,-0.07777742,-0.43884245
8042.96875,-0.06214852,-0.46746287
8046.875,-0.06854753,-0.45857158
8050.78125,-0.06224530,-0.42306411
8054.6875,-0.03845801,-0.38335955
8058.59375,-0.05323477,-0.35477892
8062.5,-0.03757064,-0.33351609
8066.40625,-0.05049405,-0.30260345
8070.3125,-0.02051865,-0.24999897
8074.21875,-0.00830287,-0.18028565
8078.125,-0.00863982,-0.11047409
8082.03125,0.00006081,-0.05729103
8085.9375,0.03963029,-0.02518296
8089.84375,0.00993329,-0.00081295
8093.75,0.01823469,0.03683255
8097.65625,0.02624755,0.09329654
8101.5625,0.05396800,0.14785783
8105.46875,0.06672016,0.17183532
8109.375,0.04545172,0.15616596
8113.28125,0.03057621,0.11646960
8117.1875,0.02919353,0.07346103
8121.09375,0.03932729,0.03473527
8125.0,0.00463559,-0.00637836
8128.90625,0.01871513,-0.06269004
8132.8125,0.00094636,-0.14400253
8136.71875,-0.03471933,-0.24908273
8140.625,-0.04776942,-0.36463943
8144.53125,-0.06414607,-0.47121403
8148.4375,-0.06584569,-0.54572779
8152.34375,-0.09734827,-0.55966359
8156.25,-0.05449132,-0.48230344
8160.15625,-0.03632955,-0.28968933
8164.0625,0.01895869,0.02741716
8167.96875,0.11142609,0.45899516
8171.875,0.20599546,0.97561556
8175.78125,0.30115959,1.53212047
8179.6875,0.39067030,2.06928539
8183.59375,0.47311875,2.51273131
8187.5,0.54176068,2.78036952
8191.40625,0.54580367,2.80636597
8195.3125,0.48555782,2.56991744
8199.21875,0.41152996,2.10718751
8203.125,0.28629032,1.49775040
8207.03125,0.17635047,0.83534604
8210.9375,0.06832441,0.20072231
8214.84375,-0.04717830,-0.35103017
8218.75,-0.12570967,-0.79019898
8222.65625,-0.17047046,-1.10709226
8226.5625,-0.21226545,-1.30525756
8230.46875,-0.23968533,-1.39649928
8234.375,-0.22608745,-1.40038633
8238.28125,-0.22664914,-1.34361792
8242.1875,-0.19625162,-1.25378537
8246.09375,-0.18859781,-1.15067208
8250.0,-0.16937613,-1.04248714
8253.90625,-0.14037640,-0.92909646
8257.8125,-0.12025100,-0.80759084
8261.71875,-0.10348215,-0.67679429
8265.625,-0.07909574,-0.54166949
8269.53125,-0.04587467,-0.41550335
8273.4375,-0.02955048,-0.31415659
8277.34375,-0.00607978,-0.24372131
8281.25,-0.02764566,-0.19363222
8285.15625,0.00070484,-0.14493950
8289.0625,0.01192177,-0.08624062
8292.96875,0.02926568,-0.02030309
8296.875,0.03097082,0.04276538
8300.78125,0.03830867,0.09517026
8304.6875,0.06075455,0.13586438
8308.59375,0.05911897,0.16947465
8312.5,0.04723145,0.20009552
8316.40625,0.08000235,0.22450672
8320.3125,0.07713211,0.23491052
8324.21875,0.05782615,0.22883005
8328.125,0.07256894,0.21059707
8332.03125,0.05001376,0.18275708
8335.9375,0.06702480,0.14245725
8339.84375,0.04415034,0.08877518
8343.75,0.02912436,0.02961842
8347.65625,0.02524672,-0.02286124
8351.5625,0.01073536,-0.06435996
8355.46875,0.01196372,-0.10513386
8359.375,0.00134001,-0.16341989
8363.28125,-0.01057601,-0.24836028
8367.1875,-0.02742877,-0.34616145
8371.09375,-0.07361235,-0.42577726
8375.0,-0.03639235,-0.46286008
8378.90625,-0.06673019,-0.45881662
8382.8125,-0.04594451,-0.43717486
8386.71875,-0.03847449,-0.42366537
8390.625,-0.05009272,-0.42831308
8394.53125,-0.05751082,-0.44318673
8398.4375,-0.05259602,-0.45423570
8402.34375,-0.04785579,-0.45148903
8406.25,-0.04703129,-0.42883626
8410.15625,-0.04017812,-0.38227618
8414.0625,-0.03577961,-0.31464589
8417.96875,-0.00101730,-0.23917890
8421.875,-0.00540788,-0.17200328
8425.78125,0.01662670,-0.11941186
8429.6875,0.01251960,-0.07430124
8433.59375,0.02643495,-0.02549950
8437.5,0.03295444,0.02984864
8441.40625,0.04909361,0.08274307
8445.3125,0.06087596,0.12118793
8449.21875,0.05993559,0.14282781
8453.125,0.05362174,0.15708593
8457.03125,0.05545500,0.17350304
8460.9375,0.08625773,0.19141936
8464.84375,0.06296889,0.20398822
8468.75,0.06133997,0.20714512
8472.65625,0.07956022,0.20042494
8476.5625,0.07098622,0.18468024
8480.46875,0.05928950,0.16267775
8484.375,0.04226159,0.13624467
8488.28125,0.06891763,0.10072178
8492.1875,0.03871408,0.04804252
8496.09375,0.03381179,-0.02209875
8500.0,0.01859783,-0.09619939
8503.90625,-0.00256184,-0.15344608
8507.8125,-0.00731900,-0.18140216
8511.71875,0.00854011,-0.18857673
8515.625,0.00408950,-0.19903640
8519.53125,-0.00692468,-0.23052952
8523.4375,-0.02067662,-0.27733111
8527.34375,-0.02564162,-0.31397453
8531.25,-0.01320388,-0.31423846
8535.15625,-0.02695308,-0.26977688
8539.0625,0.00171196,-0.19836554
8542.96875,0.00565460,-0.13725731
8546.875,0.02703031,-0.12198289
8550.78125,0.00510844,-0.16244955
8554.6875,-0.01096077,-0.23490140
8558.59375,-0.01274140,-0.29682112
8562.5,-0.04225652,-0.31382915
8566.40625,-0.00672543,-0.28023356
8570.3125,-0.00070861,-0.21909007
8574.21875,0.01376145,-0.16241200
8578.125,0.00995781,-0.12967587
8582.03125,0.00992329,-0.12215100
8585.9375,0.00550588,-0.13219264
8589.84375,0.01087003,-0.15333506
8593.75,0.02032374,-0.18019497
8597.65625,-0.00968649,-0.20206621
8601.5625,-0.00201724,-0.20431229
8605.46875,-0.01246583,-0.18137576
8609.375,0.02479262,-0.14618191
8613.28125,0.02262967,-0.12105090
8617.1875,0.01837640,-0.11746762
8621.09375,-0.00214059,-0.12690260
8625.0,0.01781747,-0.13103929
8628.90625,0.01699484,-0.11726370
8632.8125,0.02534326,-0.08496058
8636.71875,0.02706544,-0.04261735
8640.625,0.04075975,-0.00134178
8644.53125,0.03506238,0.03131870
8648.4375,0.05523221,0.05410765
8652.34375,0.05274827,0.07085491
8656.25,0.05070062,0.08721319
8660.15625,0.05652950,0.10632980
8664.0625,0.05533206,0.12544809
8667.96875,0.07204414,0.13702400
8671.875,0.05942016,0.13438055
8675.78125,0.06519491,0.11703885
8679.6875,0.05433014,0.09104089
8683.59375,0.03679399,0.06349772
8687.5,0.05897783,0.03520479
8691.40625,0.02643134,-0.00257790
8695.3125,0.03535834,-0.06430151
8699.21875,0.01685592,-0.16089725
8703.125,-0.02736050,-0.29096946
8707.03125,-0.04210047,-0.44082835
8710.9375,-0.06345982,-0.59301442
8714.84375,-0.09484102,-0.73262686
8718.75,-0.12400110,-0.84551293
8722.65625,-0.11632737,-0.90970409
8726.5625,-0.12489213,-0.88412589
8730.46875,-0.08464643,-0.70570993
8734.375,-0.02145042,-0.30591899
8738.28125,0.10751820,0.35856554
8742.1875,0.26093259,1.27729785
8746.09375,0.46885926,2.37096357
8750.0,0.68344730,3.49550915
8753.90625,0.85880607,4.46916103
8757.8125,0.97515982,5.11696148
8761.71875,1.00610423,5.31713057
8765.625,0.96849936,5.03444481
8769.53125,0.83889085,4.33192825
8773.4375,0.64792657,3.35365510
8777.34375,0.43941712,2.27758598
8781.25,0.26435530,1.25835490
8785.15625,0.12910083,0.39385584
8789.0625,-0.02129056,-0.27174097
8792.96875,-0.08936508,-0.72894585
8796.875,-0.12954573,-0.98940974
8800.78125,-0.17884980,-1.08055174
8804.6875,-0.14201511,-1.04373896
8808.59375,-0.13571744,-0.92967194
8812.5,-0.08792368,-0.78584182
8816.40625,-0.08239979,-0.64312577
8820.3125,-0.06390680,-0.51441103
8824.21875,-0.03488837,-0.40441474
8828.125,-0.01174638,-0.31666631
8832.03125,-0.00640925,-0.25126702
8835.9375,0.00914001,-0.20191947
8839.84375,-0.00129914,-0.16011579
8843.75,0.01375262,-0.12340031
8847.65625,0.02437157,-0.09859087
8851.5625,0.03523252,-0.09457628
8855.46875,0.01534217,-0.11131386
8859.375,0.00480910,-0.13843746
8863.28125,0.01042828,-0.16546251
8867.1875,0.00356904,-0.19056888
8871.09375,0.00718136,-0.21801665
8875.0,-0.00295053,-0.24887194
8878.90625,-0.01943485,-0.27682763
8882.8125,-0.01588411,-0.29443172
8886.71875,-0.01671824,-0.30217138
8890.625,-0.01412477,-0.30877832
8894.53125,-0.01334950,-0.32158792
8898.4375,-0.02241541,-0.33752048
8902.34375,-0.03498029,-0.34479928
8906.25,-0.01412067,-0.33349106
8910.15625,-0.02648582,-0.30350223
8914.0625,0.00257341,-0.26294118
8917.96875,0.00563712,-0.22001171
8921.875,-0.01093445,-0.17731357
8925.78125,0.02068385,-0.13419400
8929.6875,0.02567413,-0.09238208
8933.59375,0.01882175,-0.05798164
8937.5,0.03963006,-0.03908851
8941.40625,0.04359498,-0.03882244
8945.3125,0.00780122,-0.04882103
8949.21875,0.03554656,-0.05506835
8953.125,0.02901475,-0.05261282
8957.03125,0.02924985,-0.05010971
8960.9375,0.03594103,-0.05854976
8964.84375,0.01668947,-0.07840265
8968.75,0.01898888,-0.09935375
8972.65625,0.01721663,-0.11101427
8976.5625,0.01943233,-0.11047762
8980.46875,0.02900612,-0.09900997
8984.375,0.01480461,-0.07661647
8988.28125,0.02202529,-0.04519275
8992.1875,0.04409914,-0.01458897
8996.09375,0.03906902,0.00218880
9000.0,0.04730968,0.00221358
9003.90625,0.02274357,-0.00297549
9007.8125,0.03846680,0.00186736
9011.71875,0.04326840,0.02273408
9015.625,0.05183150,0.05370696
9019.53125,0.04521431,0.08236606
9023.4375,0.06342857,0.09680288
9027.34375,0.05057735,0.09283022
9031.25,0.04951945,0.07701381
9035.15625,0.04647017,0.05974722
9039.0625,0.05075208,0.04460378
9042.96875,0.03154661,0.02619439
9046.875,0.04471455,-0.00238047
9050.78125,0.03002726,-0.04153749
9054.6875,0.01900695,-0.08440904
9058.59375,0.00990710,-0.12339976
9062.5,0.00772586,-0.15670207
9066.40625,0.00582335,-0.18800744
9070.3125,-0.00251494,-0.22139633
9074.21875,-0.01624301,-0.25792488
9078.125,-0.01626177,-0.29624012
9082.03125,-0.03029221,-0.33453760
9085.9375,-0.02030666,-0.37050027
9089.84375,-0.03780429,-0.39940208
9093.75,-0.06293525,-0.41529691
9097.65625,-0.02085447,-0.41589987
9101.5625,-0.03279939,-0.40261149
9105.46875,-0.04367969,-0.37493405
9109.375,-0.02598410,-0.33092767
9113.28125,-0.02678773,-0.27457705
9117.1875,0.01764391,-0.21641310
9121.09375,0.00798873,-0.16324665
9125.0,-0.00656476,-0.11144546
9128.90625,0.02941445,-0.05518192
9132.8125,0.02870687,0.00174603
9136.71875,0.06682329,0.04865972
9140.625,0.04089369,0.08192979
9144.53125,0.03533337,0.10971184
9148.4375,0.07065001,0.14098670
9152.34375,0.07179704,0.17608550
9156.25,0.07544922,0.21045549
9160.15625,0.05745272,0.24038482
9164.0625,0.08911532,0.26159638
9167.96875,0.10305006,0.26957956
9171.875,0.05721321,0.26504648
9175.78125,0.08960888,0.25321132
9179.6875,0.06260297,0.23575664
9183.59375,0.09013979,0.20835188
9187.5,0.05860994,0.16666286
9191.40625,0.04173501,0.11090520
9195.3125,0.04735501,0.04458377
9199.21875,0.03030937,-0.02732682
9203.125,0.00691394,-0.09868566
9207.03125,0.01299481,-0.16310129
9210.9375,-0.01050471,-0.21456105
9214.84375,-0.03373562,-0.24970537
9218.75,0.00536781,-0.27343541
9222.65625,-0.02862130,-0.29850429
9226.5625,-0.03571488,-0.33428931
9230.46875,-0.02682870,-0.37640819
9234.375,-0.05059594,-0.40807724
9238.28125,-0.04765625,-0.41233838
9242.1875,-0.03558138,-0.38495877
9246.09375,-0.03276975,-0.33617425
9250.0,-0.02156427,-0.28192371
9253.90625,-0.00399507,-0.23523822
9257.8125,-0.01755488,-0.20248939
9261.71875,0.00005816,-0.18240494
9265.625,0.00756030,-0.16665988
9269.53125,-0.00650058,-0.14382437
9273.4375,0.01518655,-0.10753305
9277.34375,0.00666539,-0.06292341
9281.25,0.03572787,-0.02360759
9285.15625,0.03274769,-0.00079610
9289.0625,0.03107965,0.00550813
9292.96875,0.01763526,0.00542489
9296.875,0.03717120,0.01001684
9300.78125,0.02791707,0.02289009
9304.6875,0.04627644,0.03931056
9308.59375,0.03648951,0.05249929
9312.5,0.02783282,0.06017203
9316.40625,0.04801084,0.06437340
9320.3125,0.04467583,0.06654840
9324.21875,0.02792120,0.06461871
9328.125,0.04803002,0.05472514
9332.03125,0.02966581,0.03611948
9335.9375,0.02888607,0.01420370
9339.84375,0.03366616,-0.00184681
9343.75,0.02298760,-0.00315501
9347.65625,0.02680186,0.01537088
9351.5625,0.03046316,0.04962191
9355.46875,0.05118009,0.08410255
9359.375,0.05129376,0.10169265
9363.28125,0.03062196,0.09809819
9367.1875,0.05331729,0.08406717
9371.09375,0.03344776,0.07402236
9375.0,0.03809901,0.07473556
9378.90625,0.04317112,0.08248593
9382.8125,0.03446544,0.08681058
9386.71875,0.05757577,0.07682804
9390.625,0.02825500,0.04727656
9394.53125,0.00664512,-0.00022412
9398.4375,0.03106897,-0.06136997
9402.34375,0.00322286,-0.13065709
9406.25,-0.00477851,-0.19852021
9410.15625,-0.04889980,-0.25529009
9414.0625,-0.01595064,-0.30270422
9417.96875,-0.03651879,-0.35706607
9421.875,-0.05840015,-0.43811321
9425.78125,-0.08018221,-0.55527079
9429.6875,-0.09562357,-0.69919777
9433.59375,-0.13670962,-0.83869469
9437.5,-0.13591272,-0.92596698
9441.40625,-0.15106124,-0.91046548
9445.3125,-0.11824172,-0.75321865
9449.21875,-0.04452494,-0.43426079
9453.125,0.03458149,0.04546652
9457.03125,0.12681460,0.65941435
9460.9375,0.27422497,1.34661305
9464.84375,0.39104071,2.01163125
9468.75,0.48247132,2.54250169
9472.65625,0.55423230,2.84084606
9476.5625,0.54815263,2.85325718
9480.46875,0.48566052,2.58906770
9484.375,0.40074429,2.11092353
9488.28125,0.32030067,1.50708938
9492.1875,0.16032781,0.86804706
9496.09375,0.07108285,0.27256432
9500.0,-0.01361557,-0.22281322
9503.90625,-0.07771891,-0.58833122
9507.8125,-0.14036150,-0.81855351
9511.71875,-0.14917800,-0.92839336
9515.625,-0.14738554,-0.94655573
9519.53125,-0.13198441,-0.90287691
9523.4375,-0.13469052,-0.81792009
9527.34375,-0.12252391,-0.70585310
9531.25,-0.07710505,-0.58427328
9535.15625,-0.05749497,-0.47396415
9539.0625,-0.05046724,-0.38791576
9542.96875,-0.04980034,-0.32648659
9546.875,-0.02900551,-0.28523734
9550.78125,-0.02768165,-0.26315257
9554.6875,-0.01732031,-0.26136136
9558.59375,-0.04333665,-0.27722424
9562.5,-0.02973712,-0.30246159
9566.40625,-0.03683678,-0.32665634
9570.3125,-0.05231626,-0.34326202
9574.21875,-0.04013787,-0.35417500
9578.125,-0.04519814,-0.36646241
9582.03125,-0.05225080,-0.38160470
9585.9375,-0.04288510,-0.38989440
9589.84375,-0.06347669,-0.37872812
9593.75,-0.04441242,-0.34664416
9597.65625,-0.03449701,-0.30736709
9601.5625,-0.03090830,-0.27814662
9605.46875,-0.01497924,-0.26279923
9609.375,-0.03506322,-0.24559374
9613.28125,-0.03093086,-0.20390815
9617.1875,-0.00185685,-0.13069597
9621.09375,0.00887467,-0.04504288
9625.0,0.03675929,0.02180959
9628.90625,0.02616244,0.05241387
9632.8125,0.01504261,0.05578618
9636.71875,0.04112223,0.05683399
9640.625,0.02624357,0.07616678
9644.53125,0.02243583,0.11688273
9648.4375,0.07434024,0.16513453
9652.34375,0.04859766,0.20353416
9656.25,0.05385814,0.22394954
9660.15625,0.05164662,0.22576681
9664.0625,0.06536032,0.20810004
9667.96875,0.04501886,0.17173807
9671.875,0.05363297,0.12711193
9675.78125,0.02368433,0.09336719
9679.6875,0.01604153,0.08398345
9683.59375,0.04650418,0.09243388
9687.5,0.04376798,0.09674499
9691.40625,0.02905235,0.08081079
9695.3125,0.02275877,0.04880037
9699.21875,0.01950057,0.01899108
9703.125,0.00708622,0.00629372
9707.03125,0.03203076,0.01040481
9710.9375,0.02006008,0.01931003
9714.84375,0.01712546,0.02217450
9718.75,0.01471231,0.01624681
9722.65625,0.02207215,0.00361767
9726.5625,0.01490970,-0.01235804
9730.46875,0.01709598,-0.02625483
9734.375,-0.00672566,-0.03234035
9738.28125,0.01232746,-0.03138070
9742.1875,0.03103865,-0.03128605
9746.09375,-0.00321960,-0.03710407
9750.0,-0.00073565,-0.04639071
9753.90625,0.00891982,-0.05840581
9757.8125,0.00674152,-0.08006731
9761.71875,-0.00052052,-0.11715636
9765.625,-0.03090363,-0.16462807
9769.53125,-0.00904146,-0.20932306
9773.4375,-0.03278497,-0.23870820
9777.34375,-0.03178668,-0.24560073
9781.25,-0.01824662,-0.22894856
9785.15625,-0.03076152,-0.19485140
9789.0625,-0.01917853,-0.15874961
9792.96875,0.00805346,-0.14235753
9796.875,-0.02025288,-0.15943716
9800.78125,-0.01969124,-0.20183641
9804.6875,-0.03677539,-0.24369137
9808.59375,-0.03026234,-0.26087180
9812.5,-0.03071794,-0.24595273
9816.40625,-0.01871318,-0.20756967
9820.3125,-0.01887041,-0.16042349
9824.21875,-0.00637327,-0.11689638
9828.125,0.00691152,-0.08228672
9832.03125,0.00561234,-0.05113532
9835.9375,0.00886771,-0.00918550
9839.84375,0.01764087,0.05435966
9843.75,0.04703452,0.13390076
9847.65625,0.04916913,0.20875719
9851.5625,0.06662705,0.25850037
9855.46875,0.07147987,0.27800301
9859.375,0.05805993,0.28003690
9863.28125,0.07180503,0.28344387
9867.1875,0.04640653,0.29516670
9871.09375,0.08927890,0.30176088
9875.0,0.07268693,0.28142762
9878.90625,0.05055766,0.22621533
9882.8125,0.03243662,0.15007448
9886.71875,0.04285212,0.07646319
9890.625,0.00661396,0.02152742
9894.53125,0.00960179,-0.01465284
9898.4375,0.01727304,-0.04560344
9902.34375,-0.00171351,-0.08602750
9906.25,-0.01932530,-0.14068516
9910.15625,-0.01241510,-0.20503610
9914.0625,-0.04593330,-0.27173230
9917.96875,-0.03865828,-0.33333567
9921.875,-0.05535164,-0.38203454
9925.78125,-0.06532652,-0.41091269
9929.6875,-0.05368938,-0.41725025
9933.59375,-0.07345659,-0.40499499
9937.5,-0.03915865,-0.38406938
9941.40625,-0.06759921,-0.36633697
9945.3125,-0.03353476,-0.35937950
9949.21875,-0.06572861,-0.36098710
9953.125,-0.03905670,-0.35882249
9957.03125,-0.05321445,-0.33758762
9960.9375,-0.04643051,-0.29020801
9964.84375,-0.01925272,-0.22381839
9968.75,-0.00348928,-0.15344666
9972.65625,-0.01728955,-0.09004806
9976.5625,0.02160279,-0.03621171
9980.46875,0.00669755,0.00999887
9984.375,0.02594455,0.05135765
9988.28125,0.03603016,0.09035538
9992.1875,0.04453225,0.12855925
9996.09375,0.02043175,0.16364288
10000.0,0.06464020,0.18580762
10003.90625,0.05374142,0.18298435
10007.8125,0.04226438,0.15449962
10011.71875,0.03410871,0.11606208
10015.625,0.02386128,0.08736759
10019.53125,0.02455427,0.07537499
10023.4375,0.04321435,0.07090811
10027.34375,0.02763941,0.06131376
10031.25,0.01268278,0.04331220
10035.15625,0.01413095,0.02144558
10039.0625,0.03325621,-0.00044488
10042.96875,0.00453419,-0.02114627
10046.875,-0.00441523,-0.04147016
10050.78125,0.01302069,-0.06749104
10054.6875,-0.00333976,-0.10916492
10058.59375,-0.01406440,-0.17023410
10062.5,-0.02780007,-0.24109787
10066.40625,-0.04548403,-0.30371085
10070.3125,-0.04795550,-0.34427068
10074.21875,-0.04767615,-0.36319908
10078.125,-0.05363247,-0.37487009
10082.03125,-0.05681990,-0.39838979
10085.9375,-0.06517569,-0.44691426
10089.84375,-0.07955988,-0.52075058
10093.75,-0.08833246,-0.60467893
10097.65625,-0.10807966,-0.67005789
10101.5625,-0.12055877,-0.68448478
10105.46875,-0.09047979,-0.62585330
10109.375,-0.07321183,-0.48861393
10113.28125,-0.03294381,-0.27634278
10117.1875,0.02335562,0.00927438
10121.09375,0.07767648,0.36936808
10125.0,0.15622702,0.79633123
10128.90625,0.25082421,1.26153421
10132.8125,0.33405587,1.71655488
10136.71875,0.39525834,2.10742617
10140.625,0.46131915,2.38937569
10144.53125,0.48018619,2.53462052
10148.4375,0.46961010,2.53269196
10152.34375,0.45263034,2.38561583
10156.25,0.41947940,2.10560346
10160.15625,0.31407350,1.71815038
10164.0625,0.24986130,1.26121879
10167.96875,0.16288979,0.77731067
10171.875,0.07927115,0.30713359
10175.78125,-0.02318569,-0.11403789
10179.6875,-0.04940247,-0.46137354
10183.59375,-0.11642534,-0.72189963
10187.5,-0.14923806,-0.89089531
10191.40625,-0.16302437,-0.97174478
10195.3125,-0.15520638,-0.97892112
10199.21875,-0.15483050,-0.93519872
10203.125,-0.14418297,-0.86320794
10207.03125,-0.10936588,-0.77766424
10210.9375,-0.11436751,-0.68245381
10214.84375,-0.09906656,-0.57685769
10218.75,-0.05912503,-0.46725252
10222.65625,-0.04447293,-0.36851186
10226.5625,-0.02685863,-0.29120356
10230.46875,-0.04305500,-0.23378287
10234.375,-0.01064441,-0.19204397
10238.28125,-0.01440209,-0.17047198
10242.1875,0.00152008,-0.17761360
10246.09375,-0.03656248,-0.21307477
10250.0,-0.02297029,-0.26462507
10253.90625,-0.03447664,-0.31642476
10257.8125,-0.05680621,-0.35754022
10261.71875,-0.05339769,-0.38629490
10265.625,-0.03839631,-0.40828040
10269.53125,-0.06420931,-0.42762092
10273.4375,-0.07307304,-0.44261879
10277.34375,-0.05862639,-0.45277372
10281.25,-0.06038017,-0.46388945
10285.15625,-0.06197160,-0.48056954
10289.0625,-0.08310355,-0.49758685
10292.96875,-0.07234284,-0.50307196
10296.875,-0.05553313,-0.48757988
10300.78125,-0.07035983,-0.44907966
10304.6875,-0.06455692,-0.39605671
10308.59375,-0.03740794,-0.34807509
10312.5,-0.01934273,-0.32298726
10316.40625,-0.04191529,-0.31654927
10320.3125,-0.04883244,-0.30117413
10324.21875,-0.02453664,-0.25086778
10328.125,-0.00898170,-0.16515757
10332.03125,0.01127155,-0.06857388
10335.9375,0.02923158,0.00898105
10339.84375,0.02790213,0.05227412
10343.75,0.02775661,0.06777702
10347.65625,0.04301269,0.07580364
10351.5625,0.03303516,0.09567989
10355.46875,0.04575301,0.13253076
10359.375,0.03868522,0.17129731
10363.28125,0.07699815,0.18454425
10367.1875,0.05157232,0.15370907
10371.09375,0.02732636,0.08569189
10375.0,0.01978984,0.00684598
10378.90625,0.01995608,-0.05732623
10382.8125,-0.00176226,-0.09586333
10386.71875,0.00153185,-0.11418334
10390.625,-0.00641882,-0.12938049
10394.53125,0.00526324,-0.15991740
10398.4375,-0.01793592,-0.21246597
10402.34375,-0.02925339,-0.27609250
10406.25,-0.04209998,-0.32990542
10410.15625,-0.04553651,-0.35754907
10414.0625,-0.03666895,-0.35703367
10417.96875,-0.04190466,-0.34019849
10421.875,-0.02814107,-0.32413092
10425.78125,-0.05073392,-0.32194042
10429.6875,-0.03097166,-0.33859706
10433.59375,-0.04025326,-0.36966166
10437.5,-0.04233067,-0.39966840
10441.40625,-0.06472906,-0.40654448
10445.3125,-0.05403223,-0.37763891
10449.21875,-0.02729699,-0.32427469
10453.125,-0.01693143,-0.27542362
10457.03125,-0.02874368,-0.25418398
10460.9375,-0.01970913,-0.26098353
10464.84375,-0.03160760,-0.27720720
10468.75,-0.02931096,-0.28233251
10472.65625,-0.03127216,-0.26988432
10476.5625,-0.01041161,-0.24996470
10480.46875,-0.01709355,-0.23677948
10484.375,-0.02337540,-0.23487909
10488.28125,-0.02405200,-0.23836814
10492.1875,-0.01307766,-0.23951468
10496.09375,-0.01552043,-0.23424207
10500.0,-0.02891634,-0.22241971
10503.90625,0.00233765,-0.20674782
10507.8125,-0.01418607,-0.18976538
10511.71875,-0.01577611,-0.17205665
10515.625,0.00363599,-0.15625896
10519.53125,0.00047957,-0.14976673
10523.4375,-0.01010856,-0.15844588
10527.34375,0.00057574,-0.17817169
10531.25,-0.01512202,-0.19446507
10535.15625,-0.00611739,-0.19188902
10539.0625,-0.02153929,-0.16654766
10542.96875,0.02424959,-0.12984692
10546.875,-0.00931354,-0.09821880
10550.78125,0.02516832,-0.07934984
10554.6875,0.01003175,-0.06800542
10558.59375,0.01056230,-0.05258735
10562.5,0.02141695,-0.02583856
10566.40625,0.02739210,0.00797743
10570.3125,0.03084663,0.03464159
10574.21875,0.04284135,0.03916356
10578.125,0.02267333,0.01591443
10582.03125,0.02439714,-0.02845619
10585.9375,0.00072935,-0.08212541
10589.84375,0.00917125,-0.13762105
10593.75,-0.00629628,-0.19391312
10597.65625,-0.02394780,-0.25216553
10601.5625,-0.03141673,-0.31395599
10605.46875,-0.04463430,-0.38337058
10609.375,-0.05706475,-0.46634051
10613.28125,-0.07181061,-0.56556648
10617.1875,-0.10145050,-0.67710811
10621.09375,-0.12348815,-0.79212272
10625.0,-0.12365258,-0.89879340
10628.90625,-0.16682294,-0.98055220
10632.8125,-0.15918103,-1.01450002
10636.71875,-0.12410947,-0.97059572
10640.625,-0.14510918,-0.80978251
10644.53125,-0.06292738,-0.48917183
10648.4375,0.04478972,0.02236568
10652.34375,0.14272153,0.73048681
10656.25,0.35078168,1.61034238
10660.15625,0.46633312,2.60380721
10664.0625,0.69638103,3.61631131
10667.96875,0.86247689,4.52420139
10671.875,0.98065615,5.20206642
10675.78125,1.03629613,5.55697250
10679.6875,1.04604053,5.54791880
10683.59375,0.96752393,5.18717003
10687.5,0.86846656,4.53261662
10691.40625,0.68727803,3.67507243
10695.3125,0.52176285,2.72021317
10699.21875,0.36358792,1.76991677
10703.125,0.18265595,0.90951562
10707.03125,0.06342587,0.19939373
10710.9375,-0.02751164,-0.33244014
10714.84375,-0.11310112,-0.69278342
10718.75,-0.12496926,-0.91489458
10722.65625,-0.15671296,-1.03934765
10726.5625,-0.18630008,-1.09522974
10730.46875,-0.16627203,-1.09709060
10734.375,-0.16674088,-1.05587280
10738.28125,-0.15405080,-0.98684943
10742.1875,-0.13296820,-0.90683383
10746.09375,-0.13047042,-0.82755220
10750.0,-0.09958418,-0.75395036
10753.90625,-0.11035882,-0.68892992
10757.8125,-0.08250714,-0.63843834
10761.71875,-0.08872052,-0.60998350
10765.625,-0.07309743,-0.60457581
10769.53125,-0.08596130,-0.61012697
10773.4375,-0.08219808,-0.60495442
10777.34375,-0.08687158,-0.57183599
10781.25,-0.06297377,-0.51254302
10785.15625,-0.05527946,-0.44918859
10789.0625,-0.03735817,-0.40807632
10792.96875,-0.04314305,-0.39824313
10796.875,-0.05108018,-0.40440962
10800.78125,-0.05174082,-0.40164089
10804.6875,-0.03947500,-0.37719598
10808.59375,-0.03933962,-0.33895320
10812.5,-0.01639633,-0.30495265
10816.40625,-0.01780849,-0.28543773
10820.3125,-0.03470879,-0.27438232
10824.21875,-0.02890967,-0.25865149
10828.125,-0.00077562,-0.23322138
10832.03125,-0.01058937,-0.20499842
10835.9375,-0.01476030,-0.18555467
10839.84375,0.00399515,-0.18330543
10843.75,-0.01367297,-0.19813035
10847.65625,-0.01160522,-0.22023763
10851.5625,-0.01336015,-0.23705648
10855.46875,-0.03119097,-0.24292053
10859.375,0.00275970,-0.24048126
10863.28125,-0.02210735,-0.23287822
10867.1875,-0.01433545,-0.21914798
10871.09375,-0.01619060,-0.20047963
10875.0,0.00193168,-0.18603081
10878.90625,-0.00687799,-0.18612589
10882.8125,-0.00485497,-0.20048760
10886.71875,-0.02391731,-0.21650811
10890.625,-0.00332150,-0.21854538
10894.53125,-0.01835445,-0.19809499
10898.4375,0.00472684,-0.15822902
10902.34375,0.00704873,-0.11171566
10906.25,0.00384553,-0.07432228
10910.15625,0.02964027,-0.05677191
10914.0625,0.01204952,-0.05976636
10917.96875,0.01285916,-0.07532024
10921.875,0.00669584,-0.09365597
10925.78125,0.00115114,-0.10971466
10929.6875,0.01266867,-0.12393983
10933.59375,0.01101990,-0.13821925
10937.5,-0.02196318,-0.15343735
10941.40625,0.00132801,-0.17258002
10945.3125,-0.01086964,-0.20283081
10949.21875,-0.01181972,-0.24935555
10953.125,-0.02450486,-0.30658206
10957.03125,-0.05202603,-0.35924438
10960.9375,-0.05819628,-0.39575687
10964.84375,-0.02905859,-0.42002583
10968.75,-0.05434002,-0.44669577
10972.65625,-0.08016861,-0.48698285
10976.5625,-0.06398159,-0.54210001
10980.46875,-0.07658900,-0.60352510
10984.375,-0.09749025,-0.65379465
10988.28125,-0.10506468,-0.67392868
10992.1875,-0.09826408,-0.65799522
10996.09375,-0.07670881,-0.61986393
11000.0,-0.08130762,-0.58398306
11003.90625,-0.08466600,-0.57043922
11007.8125,-0.07968765,-0.58602107
11011.71875,-0.07788882,-0.62249810
11015.625,-0.11258841,-0.66158545
11019.53125,-0.09254179,-0.68543601
11023.4375,-0.09794758,-0.68245119
11027.34375,-0.09660072,-0.64201355
11031.25,-0.07305012,-0.54802704
11035.15625,-0.03899093,-0.37909386
11039.0625,0.00653808,-0.11103868
11042.96875,0.06154350,0.27790308
11046.875,0.16605191,0.79515237
11050.78125,0.31063271,1.42488456
11054.6875,0.40399861,2.13244152
11058.59375,0.53174180,2.86973262
11062.5,0.68185443,3.56950474
11066.40625,0.78824145,4.14408636
11070.3125,0.85123259,4.50483418
11074.21875,0.84907383,4.59025621
11078.125,0.84001249,4.38330364
11082.03125,0.73620880,3.91355848
11085.9375,0.61131632,3.24672055
11089.84375,0.47248363,2.46470428
11093.75,0.32422465,1.64629734
11097.65625,0.18492304,0.85733902
11101.5625,0.05079816,0.14824261
11105.46875,-0.06692229,-0.44758314
11109.375,-0.13948618,-0.91519451
11113.28125,-0.20827544,-1.25571764
11117.1875,-0.23434126,-1.47903919
11121.09375,-0.27892315,-1.59690821
11125.0,-0.28325525,-1.62264383
11128.90625,-0.24653445,-1.57473147
11132.8125,-0.25652218,-1.47619951
11136.71875,-0.22267878,-1.34968030
11140.625,-0.19678921,-1.21312559
11144.53125,-0.17695658,-1.07709908
11148.4375,-0.15216155,-0.94431096
11152.34375,-0.10661271,-0.81222296
11156.25,-0.13185717,-0.67810780
11160.15625,-0.07101774,-0.54584384
11164.0625,-0.03635091,-0.42707083
11167.96875,-0.04809842,-0.33158988
11171.875,-0.03529719,-0.26022974
11175.78125,-0.01515704,-0.20970842
11179.6875,0.00727680,-0.17658371
11183.59375,-0.02156664,-0.15350148
11187.5,-0.00058331,-0.13016477
11191.40625,0.00028518,-0.10210506
11195.3125,0.01203765,-0.07459679
11199.21875,0.00886177,-0.05723555
11203.125,0.01548801,-0.05655761
11207.03125,0.00230162,-0.07193638
11210.9375,0.00708047,-0.09569059
11214.84375,-0.00290739,-0.11741865
11218.75,-0.00451319,-0.13009168
11222.65625,-0.00008795,-0.13302332
11226.5625,-0.00197296,-0.13000706
11230.46875,-0.01613205,-0.12677093
11234.375,0.01516431,-0.12924013
11238.28125,-0.00666641,-0.13896891
11242.1875,-0.02273729,-0.14993672
11246.09375,0.00628595,-0.15445924
11250.0,-0.01644647,-0.15156892
11253.90625,-0.00168712,-0.14678799
11257.8125,-0.00816789,-0.14533147
11261.71875,-0.00508242,-0.14704448
11265.625,-0.00621603,-0.14759775
11269.53125,-0.01551006,-0.14520663
11273.4375,-0.00872520,-0.14559060
11277.34375,0.01420446,-0.15693103
11281.25,-0.03847099,-0.17986058
11285.15625,-0.01276813,-0.20675279
11289.0625,-0.01082766,-0.22890507
11292.96875,-0.03171484,-0.23947003
11296.875,-0.03909547,-0.23537536
11300.78125,-0.00076878,-0.22334874
11304.6875,-0.03552306,-0.21907447
11308.59375,-0.01074433,-0.23492922
11312.5,-0.03397510,-0.26922008
11316.40625,-0.04411296,-0.30814150
11320.3125,-0.04365939,-0.33834630
11324.21875,-0.04562256,-0.35734427
11328.125,-0.04229292,-0.37091967
11332.03125,-0.05357791,-0.38260624
11335.9375,-0.05842172,-0.38984343
11339.84375,-0.05824664,-0.39082351
11343.75,-0.04309998,-0.38985029
11347.65625,-0.04717704,-0.39130822
11351.5625,-0.06534602,-0.39139423
11355.46875,-0.05600863,-0.38156545
11359.375,-0.03827370,-0.35825235
11363.28125,-0.04251386,-0.32376704
11367.1875,-0.03146460,-0.27958661
11371.09375,-0.02965504,-0.22435272
11375.0,-0.01214108,-0.15841576
11378.90625,0.00540872,-0.08615145
11382.8125,0.02144602,-0.01213259
11386.71875,0.01834918,0.06217448
11390.625,0.05113497,0.13459399
11394.53125,0.03230715,0.19531265
11398.4375,0.07727324,0.22707008
11402.34375,0.05522893,0.21695507
11406.25,0.05178866,0.17124468
11410.15625,0.04070522,0.11749715
11414.0625,0.01185370,0.08734611
11417.96875,0.04112985,0.09214325
11421.875,0.04062565,0.11413179
11425.78125,0.05542505,0.12270308
11429.6875,0.00821680,0.09766467
11433.59375,0.03883862,0.03718007
11437.5,0.00319173,-0.04743811
11441.40625,0.00447992,-0.13728800
11445.3125,-0.04543258,-0.21293326
11449.21875,-0.02402696,-0.26628631
11453.125,-0.04022180,-0.30588564
11457.03125,-0.03764816,-0.34566465
11460.9375,-0.05352277,-0.38841632
11464.84375,-0.07587942,-0.42347416
11468.75,-0.05691645,-0.44047287
11472.65625,-0.06443316,-0.44173455
11476.5625,-0.06836008,-0.44062540
11480.46875,-0.06437363,-0.45064536
11484.375,-0.06243775,-0.47426993
11488.28125,-0.07335101,-0.49737611
11492.1875,-0.08520985,-0.49646273
11496.09375,-0.07992312,-0.45839384
11500.0,-0.04026078,-0.39438525
11503.90625,-0.04010192,-0.33048341
11507.8125,-0.03885965,-0.28410372
11511.71875,-0.03633056,-0.25226200
11515.625,-0.02163195,-0.21943884
11519.53125,-0.01275854,-0.17212112
11523.4375,-0.00856013,-0.10900739
11527.34375,-0.00502994,-0.04425499
11531.25,0.03633941,0.00033916
11535.15625,0.01908307,0.01423498
11539.0625,0.01388321,0.01069658
11542.96875,0.00910399,0.01503173
11546.875,0.01833101,0.03898222
11550.78125,0.03673880,0.06974373
11554.6875,0.03707648,0.08428685
11558.59375,0.02413256,0.07176995
11562.5,0.02516478,0.04212245
11566.40625,0.01779745,0.01624868
11570.3125,0.00426875,0.00814242
11574.21875,0.02845582,0.01250930
11578.125,0.01156799,0.00834659
11582.03125,0.02965831,-0.02376888
11585.9375,-0.01836002,-0.08850788
11589.84375,-0.02309904,-0.18038009
11593.75,-0.02681338,-0.29553252
11597.65625,-0.06057945,-0.43150389
11601.5625,-0.09827559,-0.57813585
11605.46875,-0.11852086,-0.71609825
11609.375,-0.12828316,-0.82081437
11613.28125,-0.13695191,-0.85881102
11617.1875,-0.13259012,-0.78097302
11621.09375,-0.07675112,-0.52765298
11625.0,0.00896248,-0.04769773
11628.90625,0.13351181,0.67648947
11632.8125,0.30107024,1.60304582
11636.71875,0.48452410,2.61281013
11640.625,0.66194344,3.51859784
11644.53125,0.77754706,4.11418629
11648.4375,0.79418188,4.24778175
11652.34375,0.73424101,3.88178635
11656.25,0.58437079,3.10641503
11660.15625,0.38665372,2.10092664
11664.0625,0.19890247,1.06340384
11667.96875,0.04846499,0.14668423
11671.875,-0.08969301,-0.56901318
11675.78125,-0.16902854,-1.06605589
11679.6875,-0.24328086,-1.36484468
11683.59375,-0.25957811,-1.50443399
11687.5,-0.25772789,-1.52996850
11691.40625,-0.24929121,-1.48053527
11695.3125,-0.24521035,-1.38012397
11699.21875,-0.21004669,-1.23951244
11703.125,-0.17293553,-1.06605864
11707.03125,-0.15256828,-0.87142128
11710.9375,-0.10300735,-0.67316735
11714.84375,-0.06745956,-0.49097931
11718.75,-0.06031198,-0.34047881
11722.65625,-0.00949407,-0.22906438
11726.5625,-0.01880503,-0.15381311
11730.46875,-0.00294433,-0.10097069
11734.375,0.00891394,-0.05106293
11738.28125,0.01346867,0.01034333
11742.1875,0.03540025,0.08356721
11746.09375,0.03744531,0.15429994
11750.0,0.06242877,0.20261055
11753.90625,0.05352743,0.21574643
11757.8125,0.05485290,0.19606829
11761.71875,0.04626389,0.15947871
11765.625,0.03080018,0.12618388
11769.53125,0.04387455,0.10937373
11773.4375,0.03030022,0.10858173
11777.34375,0.04595838,0.11180259
11781.25,0.02683276,0.10377881
11785.15625,0.03867915,0.07406368
11789.0625,0.01808119,0.02102776
11792.96875,0.00920707,-0.04846970
11796.875,-0.00846469,-0.12305055
11800.78125,-0.01915411,-0.19251388
11804.6875,-0.02392780,-0.25114861
11808.59375,-0.03016464,-0.29649484
11812.5,-0.05828916,-0.32855603
11816.40625,-0.05116082,-0.35397360
11820.3125,-0.03146414,-0.38637263
11824.21875,-0.06819567,-0.43386492
11828.125,-0.07260541,-0.48613450
11832.03125,-0.07840822,-0.51914656
11835.9375,-0.08616560,-0.51374686
11839.84375,-0.05137122,-0.46918875
11843.75,-0.06003831,-0.40079471
11847.65625,-0.05074554,-0.32864529
11851.5625,-0.02442535,-0.26858595
11855.46875,-0.00758041,-0.22624965
11859.375,-0.03867209,-0.19446993
11863.28125,-0.00517388,-0.16031051
11867.1875,0.00001869,-0.11638299
11871.09375,0.00754976,-0.06332321
11875.0,0.01828991,-0.00498057
11878.90625,0.02131536,0.05377473
11882.8125,0.04872756,0.10676555
11886.71875,0.04389165,0.14873394
11890.625,0.04615061,0.17820068
11894.53125,0.06099302,0.19722128
11898.4375,0.05926035,0.20955421
11902.34375,0.05494713,0.21779914
11906.25,0.05276696,0.21847527
11910.15625,0.06792387,0.20173596
11914.0625,0.04971047,0.16161083
11917.96875,0.03816506,0.10579409
11921.875,0.02371432,0.05049084
11925.78125,0.02396428,0.00593327
11929.6875,0.00915791,-0.03005565
11933.59375,0.01651342,-0.06493371
11937.5,0.01180539,-0.10030054
11941.40625,-0.02214600,-0.12968004
11945.3125,-0.00314833,-0.14805795
11949.21875,-0.00082694,-0.15998237
11953.125,-0.01116436,-0.17528391
11957.03125,-0.02838146,-0.20071670
11960.9375,-0.00463724,-0.23653011
11964.84375,-0.03032563,-0.27391559
11968.75,-0.03801862,-0.29520485
11972.65625,-0.03682341,-0.28586617
11976.5625,-0.02396290,-0.25059366
11980.46875,-0.01139783,-0.21374300
11984.375,-0.00820491,-0.20066480
11988.28125,-0.01839983,-0.21788642
11992.1875,-0.03382067,-0.25052831
11996.09375,-0.02593532,-0.27680612
12000.0,-0.02746545,-0.28328085
12003.90625,-0.01763863,-0.26856932
12007.8125,-0.03582044,-0.23951329
12011.71875,-0.01249176,-0.20837300
12015.625,-0.00564563,-0.18977772
12019.53125,-0.01498067,-0.19327404
12023.4375,-0.00767610,-0.21562323
12027.34375,-0.02460149,-0.24023138
12031.25,-0.03099393,-0.24704204
12035.15625,-0.02135867,-0.22856517
12039.0625,0.00008830,-0.19715878
12042.96875,-0.00137007,-0.17279620
12046.875,-0.01897066,-0.16406557
12050.78125,0.00135652,-0.16421433
12054.6875,-0.01649518,-0.16359706
12058.59375,0.00601224,-0.16144028
12062.5,-0.00606947,-0.16536681
12066.40625,-0.01741816,-0.18291403
12070.3125,-0.00320592,-0.21469808
12074.21875,-0.02360653,-0.25259423
12078.125,-0.02800058,-0.28341153
12082.03125,-0.03747143,-0.29840711
12085.9375,-0.02075431,-0.30077374
12089.84375,-0.02814265,-0.30067670
12093.75,-0.03089511,-0.30236322
12097.65625,-0.03473347,-0.29796791
12101.5625,-0.00800673,-0.27145910
12105.46875,-0.01941710,-0.20550187
12109.375,-0.00379414,-0.08899695
12113.28125,0.04888039,0.07692460
12117.1875,0.09058606,0.28409734
12121.09375,0.12734911,0.53139734
12125.0,0.16045231,0.82660878
12128.90625,0.23710503,1.16817033
12132.8125,0.31479874,1.52849603
12136.71875,0.36529577,1.85984051
12140.625,0.42993438,2.11620569
12144.53125,0.42426991,2.27010155
12148.4375,0.45736977,2.31247449
12152.34375,0.42741793,2.24129939
12156.25,0.41402596,2.05304861
12160.15625,0.34061134,1.74587715
12164.0625,0.28200075,1.33178079
12167.96875,0.18061453,0.84679264
12171.875,0.08719769,0.34730569
12175.78125,0.00950884,-0.10922687
12179.6875,-0.05767721,-0.48627210
12183.59375,-0.12420138,-0.77800393
12187.5,-0.14513522,-1.00182772
12191.40625,-0.17654623,-1.17730963
12195.3125,-0.20835784,-1.30549061
12199.21875,-0.23040968,-1.36835325
12203.125,-0.21506470,-1.35066092
12207.03125,-0.20897913,-1.26128662
12210.9375,-0.16404957,-1.13259172
12214.84375,-0.15415153,-1.00027466
12218.75,-0.12602015,-0.88279527
12222.65625,-0.10968824,-0.77579868
12226.5625,-0.10234116,-0.66277450
12230.46875,-0.06209204,-0.53232169
12234.375,-0.04295784,-0.38897282
12238.28125,-0.00447560,-0.24978720
12242.1875,0.00987269,-0.13141029
12246.09375,0.01351846,-0.04127559
12250.0,0.02962814,0.01974454
12253.90625,0.06103078,0.05221924
12257.8125,0.03560835,0.06050681
12261.71875,0.03817566,0.05560323
12265.625,0.04600387,0.04961395
12269.53125,0.03773302,0.04775068
12273.4375,0.03655482,0.04521817
12277.34375,0.04224028,0.02995529
12281.25,0.04978843,-0.00751940
12285.15625,0.00014301,-0.06329083
12289.0625,0.01349099,-0.12209770
12292.96875,0.00647146,-0.17072421
12296.875,-0.00241931,-0.20602489
12300.78125,-0.01043776,-0.23251544
12304.6875,-0.01824072,-0.25729215
12308.59375,-0.00709225,-0.28515643
12312.5,-0.02862277,-0.31406710
12316.40625,-0.02732042,-0.33596793
12320.3125,-0.02738825,-0.34396023
12324.21875,-0.02656955,-0.33788091
12328.125,-0.02933742,-0.32356790
12332.03125,-0.01379006,-0.30912057
12335.9375,-0.02358470,-0.30122697
12339.84375,-0.01845592,-0.30214256
12343.75,-0.01776112,-0.30812612
12347.65625,-0.02548728,-0.31064597
12351.5625,-0.01959432,-0.30155954
12355.46875,-0.01845032,-0.27965078
12359.375,0.00007820,-0.25147432
12363.28125,-0.00745792,-0.22472894
12367.1875,-0.00865664,-0.20234388
12371.09375,0.00950038,-0.18299358
12375.0,0.01507420,-0.16390675
12378.90625,-0.01064608,-0.14343069
12382.8125,0.03208847,-0.12412115
12386.71875,0.01321152,-0.11123073
12390.625,0.01233929,-0.10594897
12394.53125,0.02703816,-0.10354974
12398.4375,0.01566180,-0.09958620
12402.34375,0.00819530,-0.09568284
12406.25,0.04246756,-0.09754281
12410.15625,0.00398152,-0.10690483
12414.0625,0.01636451,-0.11819430
12417.96875,0.02799663,-0.12425105
12421.875,0.00443075,-0.12241451
12425.78125,0.01390769,-0.11734652
12429.6875,0.01517859,-0.12276635
12433.59375,0.03140789,-0.15638992
12437.5,-0.02003884,-0.22763538
12441.40625,-0.02558625,-0.33144331
12445.3125,-0.03495789,-0.45141453
12449.21875,-0.05814110,-0.55980957
12453.125,-0.08172472,-0.61281615
12457.03125,-0.05319026,-0.55238575
12460.9375,-0.01896751,-0.31729195
12464.84375,0.06233169,0.14123112
12468.75,0.19349195,0.84076536
12472.65625,0.35758466,1.74920058
12476.5625,0.54224718,2.77395892
12480.46875,0.73033166,3.76618481
12484.375,0.86360914,4.54557467
12488.28125,0.95287466,4.94597578
12492.1875,0.94294095,4.86920166
12496.09375,0.83087486,4.32192326
12500.0,0.66336989,3.41278434
12503.90625,0.44362691,2.30999398
12507.8125,0.26288387,1.18594766
12511.71875,0.08751296,0.17857282
12515.625,-0.08514263,-0.62356329
12519.53125,-0.17422105,-1.18446553
12523.4375,-0.24130569,-1.51729989
12527.34375,-0.25145042,-1.66849077
12531.25,-0.26607397,-1.69286048
12535.15625,-0.25841767,-1.63463485
12539.0625,-0.23883390,-1.52222896
12542.96875,-0.20443827,-1.37209105
12546.875,-0.18413527,-1.19495237
12550.78125,-0.12924589,-1.00131702
12554.6875,-0.11218180,-0.80351686
12558.59375,-0.06584983,-0.61425281
12562.5,-0.04252566,-0.44494262
12566.40625,-0.00619862,-0.30423614
12570.3125,0.00181060,-0.19462803
12574.21875,0.03249828,-0.10963232
12578.125,0.02452828,-0.03729034
12582.03125,0.05574823,0.03037349
12585.9375,0.05627715,0.09146427
12589.84375,0.06967314,0.13844985
12593.75,0.07450936,0.16664127
12597.65625,0.08916084,0.17791481
12601.5625,0.05596334,0.17767246
12605.46875,0.08437888,0.16891932
12609.375,0.06096151,0.15013459
12613.28125,0.08996099,0.12030116
12617.1875,0.04672476,0.08475378
12621.09375,0.05179581,0.05223079
12625.0,0.03595524,0.02454610
12628.90625,0.06693745,-0.00765983
12632.8125,0.02234107,-0.05596625
12636.71875,0.02934540,-0.12162884
12640.625,0.01165958,-0.19171357
12644.53125,-0.01314787,-0.24740887
12648.4375,-0.00469706,-0.27974692
12652.34375,-0.00099006,-0.29823887
12656.25,-0.01841260,-0.32073206
12660.15625,-0.01094557,-0.35484296
12664.0625,-0.03125895,-0.39124396
12667.96875,-0.03006403,-0.41340694
12671.875,-0.03651341,-0.41236207
12675.78125,-0.02805953,-0.39410415
12679.6875,-0.00828641,-0.37468603
12683.59375,-0.02433430,-0.36677676
12687.5,-0.02282366,-0.36894715
12691.40625,-0.02810395,-0.36828482
12695.3125,-0.02453010,-0.35423681
12699.21875,0.00784905,-0.32806665
12703.125,-0.01701931,-0.29689345
12707.03125,-0.00849839,-0.26273707
12710.9375,0.00730105,-0.22357000
12714.84375,0.00906119,-0.18275586
12718.75,0.04289626,-0.14959152
12722.65625,-0.00431343,-0.12913130
12726.5625,0.03240270,-0.11688280
12730.46875,0.03987813,-0.10447619
12734.375,0.02039871,-0.08691119
12738.28125,0.02790872,-0.06627893
12742.1875,0.04196410,-0.05115709
12746.09375,0.05685789,-0.04808740
12750.0,0.02626855,-0.05267119
12753.90625,0.01791258,-0.05558900
12757.8125,0.04760803,-0.05716295
12761.71875,0.05266945,-0.06679758
12765.625,0.02777837,-0.08797038
12769.53125,0.00086415,-0.11526146
12773.4375,0.03756863,-0.14863595
12777.34375,0.00620350,-0.20080331
12781.25,0.00507474,-0.28691411
12785.15625,-0.03156239,-0.41087708
12789.0625,-0.06201561,-0.55997723
12792.96875,-0.08837883,-0.70577300
12796.875,-0.08089580,-0.80211502
12800.78125,-0.07410844,-0.77543372
12804.6875,-0.07063018,-0.52391511
12808.59375,0.04489480,0.04873606
12812.5,0.24118942,0.97290748
12816.40625,0.43248272,2.16699290
12820.3125,0.65797120,3.43334413
12824.21875,0.87938088,4.49952936
12828.125,0.99486977,5.09934282
12832.03125,0.98827130,5.06880760
12835.9375,0.85493892,4.41064596
12839.84375,0.64333296,3.29174209
12843.75,0.39745340,1.97520018
12847.65625,0.18099906,0.72228777
12851.5625,-0.01200344,-0.28785509
12855.46875,-0.13110089,-0.98840672
12859.375,-0.20721231,-1.40486193
12863.28125,-0.23100019,-1.60836267
12867.1875,-0.25655225,-1.67027128
12871.09375,-0.25728500,-1.63752568
12875.0,-0.23064442,-1.53341484
12878.90625,-0.20424747,-1.37329805
12882.8125,-0.16334379,-1.17889798
12886.71875,-0.13654493,-0.98006135
12890.625,-0.08908217,-0.80361474
12894.53125,-0.06593461,-0.66008705
12898.4375,-0.05814994,-0.54305983
12902.34375,-0.04217388,-0.44356200
12906.25,-0.00943965,-0.36225444
12910.15625,0.00088646,-0.30347496
12914.0625,0.00658681,-0.26048926
12917.96875,0.00192112,-0.21405394
12921.875,0.00879923,-0.14843047
12925.78125,0.04544603,-0.06654003
12929.6875,0.06028403,0.01321426
12933.59375,0.06957633,0.07457533
12937.5,0.05231730,0.11585382
12941.40625,0.08674645,0.14602400
12945.3125,0.07292524,0.17195188
12949.21875,0.08736511,0.18964610
12953.125,0.08928358,0.18697996
12957.03125,0.07437702,0.15677011
12960.9375,0.07477298,0.10777684
12964.84375,0.05304813,0.06061278
12968.75,0.06128892,0.03202761
12972.65625,0.04350498,0.02297278
12976.5625,0.06193184,0.01926633
12980.46875,0.04793529,0.00168972
12984.375,0.04794583,-0.04175965
12988.28125,0.03061902,-0.10793604
12992.1875,0.00800275,-0.18086918
12996.09375,0.00930098,-0.24489707
13000.0,-0.00944490,-0.29741842
13003.90625,-0.00649386,-0.34717762
13007.8125,-0.01793369,-0.39948234
13011.71875,-0.04014743,-0.44636738
13015.625,-0.03330232,-0.47376114
13019.53125,-0.03606762,-0.47560927
13023.4375,-0.04212404,-0.45920461
13027.34375,-0.02768581,-0.44058812
13031.25,-0.01620779,-0.43541303
13035.15625,-0.03797025,-0.44806239
13039.0625,-0.03316728,-0.46628317
13042.96875,-0.05014186,-0.46930024
13046.875,-0.01795237,-0.44362861
13050.78125,-0.01416659,-0.39101028
13054.6875,-0.02694664,-0.32382929
13058.59375,0.01054689,-0.25724351
13062.5,0.02218967,-0.20309168
13066.40625,0.01396983,-0.16491468
13070.3125,0.02543734,-0.13774082
13074.21875,0.02469959,-0.11300432
13078.125,0.05094481,-0.08238681
13082.03125,0.02808106,-0.04096514
13085.9375,0.04596144,0.00631229
13089.84375,0.07547680,0.04293225
13093.75,0.05396111,0.05290497
13097.65625,0.05923077,0.03504298
13101.5625,0.05121947,0.00298311
13105.46875,0.03746283,-0.02593193
13109.375,0.04909681,-0.04030856
13113.28125,0.05181209,-0.03802866
13117.1875,0.03178201,-0.02632056
13121.09375,0.04510416,-0.02097387
13125.0,0.05287397,-0.03928045
13128.90625,0.04781090,-0.08444751
13132.8125,0.01323791,-0.13688739
13136.71875,0.01808067,-0.16774134
13140.625,0.00832053,-0.16402708
13144.53125,0.03880642,-0.13996567
13148.4375,0.03190107,-0.12394018
13152.34375,0.03195740,-0.13394572
13156.25,0.01217695,-0.16369523
13160.15625,0.00808663,-0.19104439
13164.0625,0.02245442,-0.19884369
13167.96875,0.02215993,-0.18723829
13171.875,0.00998149,-0.16955893
13175.78125,0.02099380,-0.16194670
13179.6875,0.02576495,-0.17518836
13183.59375,0.01913218,-0.20834284
13187.5,0.00187355,-0.24719794
13191.40625,-0.01348208,-0.27392361
13195.3125,0.00588107,-0.28231174
13199.21875,0.00772384,-0.28183946
13203.125,-0.00087614,-0.28541979
13207.03125,-0.00656106,-0.29656279
13210.9375,-0.01340675,-0.31079143
13214.84375,-0.00007791,-0.32572091
13218.75,-0.01255015,-0.34435529
13222.65625,-0.01322641,-0.36861151
13226.5625,-0.02850460,-0.39460468
13230.46875,-0.02563249,-0.41651285
13234.375,-0.01662440,-0.43052429
13238.28125,-0.03000771,-0.43110019
13242.1875,-0.03127980,-0.40883666
13246.09375,-0.01717831,-0.36031079
13250.0,0.00528279,-0.29897889
13253.90625,-0.00162875,-0.24929540
13257.8125,0.01981593,-0.22680871
13261.71875,0.00781432,-0.22394001
13265.625,0.01345238,-0.21525365
13269.53125,0.00871769,-0.17801407
13273.4375,0.02698538,-0.11012018
13277.34375,0.05955493,-0.02994059
13281.25,0.05437508,0.03938724
13285.15625,0.06675393,0.08470541
13289.0625,0.07306076,0.10695383
13292.96875,0.07001014,0.11771083
13296.875,0.07185496,0.13092886
13300.78125,0.07841340,0.15178429
13304.6875,0.08605839,0.17163402
13308.59375,0.08278470,0.17545547
13312.5,0.08072534,0.15429191
13316.40625,0.07248133,0.11092846
13320.3125,0.05557440,0.05608201
13324.21875,0.05437862,0.00055621
13328.125,0.03764872,-0.04999318
13332.03125,0.05140235,-0.09460272
13335.9375,0.00377918,-0.13478421
13339.84375,0.01561628,-0.17577733
13343.75,0.03600344,-0.22559062
13347.65625,-0.00738089,-0.28581774
13351.5625,-0.02697616,-0.34703636
13355.46875,-0.02277645,-0.39893132
13359.375,-0.01513457,-0.43922234
13363.28125,-0.03917887,-0.46866760
13367.1875,-0.03494340,-0.48502564
13371.09375,-0.04441518,-0.48749459
13375.0,-0.05157656,-0.48329508
13378.90625,-0.00893893,-0.48373744
13382.8125,-0.04371926,-0.49093407
13386.71875,-0.04713669,-0.49203900
13390.625,-0.04112705,-0.47176147
13394.53125,-0.02387606,-0.42865643
13398.4375,-0.01560883,-0.37562898
13402.34375,-0.00248588,-0.32648739
13406.25,-0.00073573,-0.28462678
13410.15625,-0.01004252,-0.24478322
13414.0625,0.02302727,-0.20366472
13417.96875,0.02209145,-0.16446142
13421.875,0.03089617,-0.12994051
13425.78125,0.02419911,-0.09695748
13429.6875,0.04170782,-0.06171241
13433.59375,0.04523717,-0.02657572
13437.5,0.05755407,0.00241222
13441.40625,0.04318741,0.02222602
13445.3125,0.06246962,0.03318895
13449.21875,0.06322484,0.03512176
13453.125,0.04689107,0.02710972
13457.03125,0.05027891,0.00914706
13460.9375,0.04394148,-0.01836797
13464.84375,0.06077669,-0.05385199
13468.75,0.01459682,-0.09158351
13472.65625,0.03547342,-0.12304243
13476.5625,0.01413883,-0.14351220
13480.46875,0.02336932,-0.15604295
13484.375,0.03338715,-0.16729546
13488.28125,0.01068443,-0.17908032
13492.1875,0.01541292,-0.18629380
13496.09375,-0.00031651,-0.18627934
13500.0,0.02978883,-0.18786137
13503.90625,0.01481533,-0.20474270
13507.8125,0.01536046,-0.23842588
13511.71875,-0.01553555,-0.27312258
13515.625,-0.01372189,-0.29162675
13519.53125,0.01196306,-0.29242000
13523.4375,-0.00349491,-0.28668350
13527.34375,-0.00422958,-0.28291294
13531.25,0.00297046,-0.28063276
13535.15625,-0.01605055,-0.27681199
13539.0625,0.00815844,-0.27285957
13542.96875,-0.00131315,-0.27371997
13546.875,0.00340113,-0.28153679
13550.78125,-0.01172000,-0.29221836
13554.6875,0.00055144,-0.29854694
13558.59375,-0.01671918,-0.29658005
13562.5,-0.00028675,-0.29128492
13566.40625,-0.00258660,-0.29692525
13570.3125,-0.01059849,-0.32857344
13574.21875,-0.02174545,-0.38914272
13578.125,-0.02762705,-0.46357790
