rel_ms,value_mv,normalized
0.0,0.03615091,0.13433670
3.90625,0.03048130,0.21766327
7.8125,0.07371420,0.27423248
11.71875,0.05532442,0.29057115
15.625,0.03941501,0.28204411
19.53125,0.04543403,0.27241185
23.4375,0.05617191,0.26652154
27.34375,0.05951153,0.24993941
31.25,0.03157218,0.21118659
35.15625,0.05023742,0.15686089
39.0625,0.01792871,0.10601667
42.96875,0.01649107,0.07102288
46.875,0.02704632,0.04232458
50.78125,0.02746544,-0.00400496
54.6875,-0.00395154,-0.08096111
58.59375,-0.01655348,-0.17783369
62.5,-0.00712688,-0.27183485
66.40625,-0.04400071,-0.34514147
70.3125,-0.03560430,-0.39296156
74.21875,-0.04269406,-0.42328566
78.125,-0.03846816,-0.44912612
82.03125,-0.05044468,-0.47744563
85.9375,-0.05891063,-0.50493091
89.84375,-0.04819731,-0.52332771
93.75,-0.06711115,-0.52690816
97.65625,-0.04005486,-0.51476616
101.5625,-0.05244380,-0.48656386
105.46875,-0.04831981,-0.43825024
109.375,-0.03351516,-0.36585552
113.28125,-0.01919471,-0.27322453
117.1875,-0.00108449,-0.17231078
121.09375,-0.00156199,-0.07609010
125.0,0.02055816,0.00699348
128.90625,0.03397327,0.07483125
132.8125,0.03101946,0.13119678
136.71875,0.02968496,0.18017538
140.625,0.06054450,0.21963045
144.53125,0.05947062,0.24526174
148.4375,0.03584191,0.25929299
152.34375,0.05266212,0.26689640
156.25,0.06766734,0.26758757
160.15625,0.04899562,0.25937986
164.0625,0.05488308,0.24711181
167.96875,0.03827094,0.23773719
171.875,0.05771336,0.22955199
175.78125,0.04832343,0.21176082
179.6875,0.03878998,0.17357831
183.59375,0.04428468,0.11150014
187.5,0.01221766,0.02975754
191.40625,0.00213954,-0.06453082
195.3125,0.01898108,-0.16524488
199.21875,-0.03141790,-0.26408258
203.125,-0.01695115,-0.34723684
207.03125,-0.05040163,-0.40268993
210.9375,-0.03944210,-0.43186611
214.84375,-0.02303238,-0.44906083
218.75,-0.04959559,-0.46734229
222.65625,-0.06468053,-0.48995715
226.5625,-0.02742130,-0.51507914
230.46875,-0.06118868,-0.53763276
234.375,-0.05381972,-0.54372811
238.28125,-0.04252272,-0.51386666
242.1875,-0.05541762,-0.43882409
246.09375,-0.01756785,-0.33277664
250.0,-0.00193227,-0.22743553
253.90625,-0.00172516,-0.14895944
257.8125,0.00427228,-0.10112851
261.71875,0.00991855,-0.07007427
265.625,0.03366120,-0.03775932
269.53125,-0.00391595,0.00947480
273.4375,0.04246629,0.07523099
277.34375,0.05601322,0.15214568
281.25,0.03670504,0.22926351
285.15625,0.07161371,0.29780984
289.0625,0.06912655,0.35062414
292.96875,0.07245621,0.38250619
296.875,0.07428969,0.39089060
300.78125,0.07815786,0.37393928
304.6875,0.07297367,0.33151770
308.59375,0.04941007,0.26899439
312.5,0.05317122,0.19656985
316.40625,0.04367323,0.12522957
320.3125,0.03644686,0.06493799
324.21875,0.01817728,0.02195632
328.125,0.02569094,-0.00759342
332.03125,0.01834415,-0.03994389
335.9375,0.00980325,-0.09573618
339.84375,0.00383573,-0.18744048
343.75,-0.01077826,-0.30950826
347.65625,-0.04266370,-0.43669969
351.5625,-0.05147438,-0.53553921
355.46875,-0.05411724,-0.58358365
359.375,-0.04600439,-0.58081174
363.28125,-0.05562951,-0.54603374
367.1875,-0.04150255,-0.50503701
371.09375,-0.03089032,-0.47760597
375.0,-0.05121376,-0.46871167
378.90625,-0.02784850,-0.46942496
382.8125,-0.03627304,-0.46449277
386.71875,-0.03735697,-0.43866086
390.625,-0.02692807,-0.38112199
394.53125,-0.00434270,-0.28944063
398.4375,-0.01173156,-0.17210296
402.34375,0.02864027,-0.04839603
406.25,0.05202519,0.06032404
410.15625,0.03047064,0.14574997
414.0625,0.04997018,0.21527943
417.96875,0.08071411,0.27829295
421.875,0.07299109,0.33621398
425.78125,0.07602307,0.38276154
429.6875,0.07345614,0.40404406
433.59375,0.08971855,0.38228741
437.5,0.08030204,0.31245771
441.40625,0.06019413,0.21801746
445.3125,0.03897286,0.14123109
449.21875,0.02919519,0.10967906
453.125,0.06096723,0.11195739
457.03125,0.04033000,0.10856313
460.9375,0.05040187,0.06600408
464.84375,0.02803389,-0.01890340
468.75,-0.00471868,-0.12363621
472.65625,0.00276596,-0.22419460
476.5625,0.00278070,-0.31158945
480.46875,-0.03234132,-0.38772830
484.375,-0.03650254,-0.45609838
488.28125,-0.01698093,-0.51802891
492.1875,-0.06466608,-0.56991249
496.09375,-0.06080668,-0.60602653
500.0,-0.03718760,-0.62733507
503.90625,-0.04745140,-0.63809973
507.8125,-0.06158615,-0.63183051
511.71875,-0.06142453,-0.59326780
515.625,-0.03265823,-0.51783985
519.53125,-0.01626110,-0.42039531
523.4375,-0.01211392,-0.32323310
527.34375,-0.00716478,-0.24159256
531.25,0.01660241,-0.17861953
535.15625,0.01362995,-0.12627622
539.0625,0.01127726,-0.07147903
542.96875,0.05679568,-0.00598644
546.875,0.02817803,0.06944682
550.78125,0.05104420,0.14686531
554.6875,0.06025250,0.21224244
558.59375,0.08531117,0.25166908
562.5,0.06430467,0.26478299
566.40625,0.07364260,0.26837212
570.3125,0.05715269,0.27993894
574.21875,0.08214160,0.29805630
578.125,0.08104774,0.30259326
582.03125,0.07925291,0.27454340
585.9375,0.05432965,0.21304871
589.84375,0.06075562,0.13440499
593.75,0.03848579,0.05933187
597.65625,0.03351404,-0.00058045
601.5625,0.02779515,-0.05143084
605.46875,0.03336702,-0.11288992
609.375,0.00167740,-0.20019411
613.28125,-0.00151270,-0.30825993
617.1875,-0.02366424,-0.41391903
621.09375,-0.02929169,-0.49325395
625.0,-0.03853551,-0.53850597
628.90625,-0.03819634,-0.56106371
632.8125,-0.03157924,-0.57838827
636.71875,-0.05671841,-0.59791493
640.625,-0.03559194,-0.61402065
644.53125,-0.05449669,-0.61754876
648.4375,-0.03603523,-0.60357141
652.34375,-0.04188607,-0.56999201
656.25,-0.03248198,-0.51396108
660.15625,-0.02573071,-0.43512133
664.0625,0.00112987,-0.34223828
667.96875,0.00082211,-0.25156987
671.875,0.02104530,-0.17584132
675.78125,0.01443093,-0.11658973
679.6875,0.02649022,-0.06794070
683.59375,0.05882552,-0.02280063
687.5,0.02905540,0.02763963
691.40625,0.04663419,0.09200247
695.3125,0.06209689,0.16856848
699.21875,0.09164890,0.24254121
703.125,0.06637089,0.29763103
707.03125,0.08532871,0.32528281
710.9375,0.09507419,0.32400629
714.84375,0.07169867,0.29740691
718.75,0.06913344,0.25184920
722.65625,0.08629728,0.19335999
726.5625,0.05313573,0.12953645
730.46875,0.03938944,0.06993201
734.375,0.05316981,0.01680870
738.28125,0.02742729,-0.04063606
742.1875,0.03901645,-0.11585087
746.09375,0.01933433,-0.20929143
750.0,-0.01908894,-0.30734801
753.90625,-0.00599323,-0.39860016
757.8125,-0.02118014,-0.48745030
761.71875,-0.04239707,-0.58888173
765.625,-0.03601424,-0.71270734
769.53125,-0.08755908,-0.85478014
773.4375,-0.10057323,-1.00293708
777.34375,-0.11189079,-1.14869630
781.25,-0.11520367,-1.28446114
785.15625,-0.15514353,-1.38293350
789.0625,-0.14106001,-1.38068700
792.96875,-0.11249893,-1.18190038
796.875,-0.05383274,-0.67993891
800.78125,0.07712558,0.20770416
804.6875,0.23835875,1.49714816
808.59375,0.46174771,3.10405445
812.5,0.70697051,4.83663511
816.40625,0.91408497,6.42595243
820.3125,1.08017683,7.58796215
824.21875,1.15445459,8.09999180
828.125,1.12613332,7.86843252
832.03125,0.98967505,6.95932865
835.9375,0.79696101,5.57232475
839.84375,0.58428425,3.96839666
843.75,0.35000059,2.38838363
847.65625,0.21010751,1.00108624
851.5625,0.01626238,-0.10331265
855.46875,-0.06733833,-0.89266515
859.375,-0.15061112,-1.37527955
863.28125,-0.16537984,-1.59411526
867.1875,-0.17726380,-1.62121165
871.09375,-0.16632658,-1.54203093
875.0,-0.13567308,-1.42974222
878.90625,-0.13573503,-1.32181668
882.8125,-0.12892503,-1.21768355
886.71875,-0.09439097,-1.10020709
890.625,-0.09108212,-0.96073836
894.53125,-0.06742056,-0.81061053
898.4375,-0.03632699,-0.67795116
902.34375,-0.03645534,-0.59297907
906.25,-0.02946386,-0.56932491
910.15625,-0.03220522,-0.59421611
914.0625,-0.03586295,-0.63394558
917.96875,-0.05140744,-0.65150446
921.875,-0.03546741,-0.62685698
925.78125,-0.03244669,-0.56606990
929.6875,-0.01332410,-0.49195719
933.59375,-0.00408733,-0.42410463
937.5,-0.00400670,-0.36552280
941.40625,-0.01233270,-0.30823714
945.3125,0.02704320,-0.24951352
949.21875,0.02980242,-0.19582240
953.125,0.01819641,-0.15103541
957.03125,0.03109215,-0.10995658
960.9375,0.04396369,-0.06548841
964.84375,0.04448796,-0.01664688
968.75,0.04821974,0.02948708
972.65625,0.06051555,0.06045682
976.5625,0.05875917,0.06738074
980.46875,0.06389800,0.05592199
984.375,0.04361084,0.04479128
988.28125,0.04381574,0.04789385
992.1875,0.08283079,0.06047773
996.09375,0.04122462,0.06692214
1000.0,0.06171151,0.05690307
1003.90625,0.05502487,0.03039739
1007.8125,0.04826834,-0.00658912
1011.71875,0.03097926,-0.04917467
1015.625,0.04468609,-0.10053235
1019.53125,0.02960970,-0.16875881
1023.4375,0.01412124,-0.25316313
1027.34375,-0.00567922,-0.33819824
1031.25,0.00179511,-0.40399712
1035.15625,-0.00872832,-0.43988913
1039.0625,-0.02199093,-0.44899958
1042.96875,-0.00677252,-0.44540733
1046.875,-0.00778820,-0.44524336
1050.78125,-0.00708417,-0.45380446
1054.6875,-0.01678362,-0.46047926
1058.59375,-0.02111830,-0.45015946
1062.5,-0.00329099,-0.42066422
1066.40625,-0.00539566,-0.38631365
1070.3125,0.01635861,-0.36189333
1074.21875,-0.00035805,-0.34460774
1078.125,-0.01333230,-0.31813806
1082.03125,0.01510211,-0.27634117
1085.9375,0.03749859,-0.23253641
1089.84375,0.01900546,-0.19887315
1093.75,0.01977025,-0.16861142
1097.65625,0.02089056,-0.12955809
1101.5625,0.05676533,-0.08571111
1105.46875,0.03682075,-0.05409519
1109.375,0.04069018,-0.04495616
1113.28125,0.05109911,-0.05251516
1117.1875,0.03325191,-0.06120623
1121.09375,0.04900732,-0.05616388
1125.0,0.03798420,-0.03145400
1128.90625,0.05144116,0.00552320
1132.8125,0.05806363,0.03604512
1136.71875,0.06122111,0.04040137
1140.625,0.04218403,0.01087897
1144.53125,0.05345416,-0.04303189
1148.4375,0.03459955,-0.10133867
1152.34375,0.01466068,-0.14880507
1156.25,0.03633608,-0.18767937
1160.15625,0.02167860,-0.23169363
1164.0625,0.02017326,-0.28438708
1167.96875,-0.01782311,-0.33041328
1171.875,0.01138771,-0.35252312
1175.78125,0.00736318,-0.34941030
1179.6875,0.00344213,-0.33277935
1183.59375,0.00974099,-0.31583431
1187.5,-0.00962228,-0.31139752
1191.40625,0.01883997,-0.33380944
1195.3125,0.00087662,-0.38885492
1199.21875,-0.00135466,-0.45704594
1203.125,-0.03716653,-0.49709195
1207.03125,-0.02931744,-0.47901750
1210.9375,0.01463303,-0.41385001
1214.84375,0.00418466,-0.34281671
1218.75,0.01408501,-0.29839370
1222.65625,0.00214747,-0.28161606
1226.5625,0.00939781,-0.27294695
1230.46875,0.02219699,-0.25575143
1234.375,0.00995863,-0.22799979
1238.28125,0.03961819,-0.19696961
1242.1875,0.01440685,-0.16740881
1246.09375,0.03411322,-0.13726293
1250.0,0.03150139,-0.10465568
1253.90625,0.04181286,-0.07439860
1257.8125,0.05476888,-0.05343588
1261.71875,0.02792300,-0.04250244
1265.625,0.04780275,-0.03758790
1269.53125,0.04410250,-0.03754190
1273.4375,0.05241754,-0.04315009
1277.34375,0.04102369,-0.04953801
1281.25,0.03383269,-0.04811988
1285.15625,0.04368436,-0.03942560
1289.0625,0.05113899,-0.03833264
1292.96875,0.04204018,-0.06195211
1296.875,0.03093655,-0.11406607
1300.78125,0.03081746,-0.18211362
1304.6875,0.00375434,-0.24642135
1308.59375,0.01233883,-0.29237464
1312.5,0.01247216,-0.31609893
1316.40625,0.00590967,-0.32042852
1320.3125,0.00106508,-0.30996361
1324.21875,0.00635635,-0.29345798
1328.125,0.00958135,-0.28582832
1332.03125,0.02632711,-0.29849941
1335.9375,-0.00663490,-0.32613134
1339.84375,-0.00991492,-0.34974810
1343.75,0.01266363,-0.35494578
1347.65625,0.00275018,-0.34228992
1351.5625,-0.00913983,-0.32326490
1355.46875,0.02097175,-0.31295279
1359.375,0.00153518,-0.32082707
1363.28125,0.00189963,-0.34043241
1367.1875,0.00049588,-0.35054153
1371.09375,-0.00091873,-0.33109254
1375.0,0.01376901,-0.28018612
1378.90625,0.00357630,-0.21836203
1382.8125,0.04706039,-0.17478424
1386.71875,0.02407592,-0.16244254
1390.625,0.01947109,-0.16623814
1394.53125,0.01537951,-0.16163564
1398.4375,0.02974096,-0.14405660
1402.34375,0.04037050,-0.13190685
1406.25,0.03278522,-0.13998756
1410.15625,0.01733635,-0.15802287
1414.0625,0.02908854,-0.16034459
1417.96875,0.01186189,-0.13424945
1421.875,0.04963955,-0.09495212
1425.78125,0.04037744,-0.07112024
1429.6875,0.03408028,-0.07722551
1433.59375,0.03417774,-0.10257179
1437.5,0.02262446,-0.12559021
1441.40625,0.02617257,-0.13475430
1445.3125,0.03768889,-0.13511676
1449.21875,0.02364651,-0.13781093
1453.125,0.02908755,-0.14748991
1457.03125,0.02238456,-0.16077320
1460.9375,0.02017039,-0.17334631
1464.84375,0.01882663,-0.18631022
1468.75,0.02512491,-0.20611575
1472.65625,0.00685538,-0.23842655
1476.5625,0.01633853,-0.28090113
1480.46875,-0.00330293,-0.32073298
1484.375,-0.00258655,-0.34127015
1488.28125,-0.00574883,-0.33591509
1492.1875,0.01183062,-0.31650701
1496.09375,-0.00295729,-0.30454686
1500.0,0.01478778,-0.31210586
1503.90625,-0.01239904,-0.33157611
1507.8125,0.00458166,-0.34440958
1511.71875,-0.01345245,-0.33955503
1515.625,0.01463169,-0.32279122
1519.53125,-0.00620837,-0.30927214
1523.4375,0.00856283,-0.30993888
1527.34375,-0.00440366,-0.32532829
1531.25,-0.00518365,-0.34825948
1535.15625,0.00589936,-0.36900708
1539.0625,-0.02038782,-0.38137338
1542.96875,-0.01944621,-0.39191622
1546.875,0.00452615,-0.42356557
1550.78125,-0.03522447,-0.50074446
1554.6875,-0.02997926,-0.62502033
1558.59375,-0.06499930,-0.76422185
1562.5,-0.08571059,-0.86262780
1566.40625,-0.07228796,-0.85990727
1570.3125,-0.03938022,-0.70012093
1574.21875,-0.00350456,-0.32688099
1578.125,0.07809489,0.31614596
1582.03125,0.21994963,1.26393402
1585.9375,0.36868072,2.49697661
1589.84375,0.58054310,3.91636300
1593.75,0.77075720,5.34327364
1597.65625,0.91923541,6.54875851
1601.5625,1.04576540,7.30676174
1605.46875,1.06856477,7.45716381
1609.375,0.98469502,6.95848656
1613.28125,0.84604669,5.90325212
1617.1875,0.64854300,4.48528767
1621.09375,0.42746383,2.93636465
1625.0,0.24986267,1.46246493
1628.90625,0.05831088,0.20567499
1632.8125,-0.05293496,-0.76065391
1636.71875,-0.15426382,-1.41780090
1640.625,-0.21286964,-1.78853929
1644.53125,-0.21738794,-1.92970800
1648.4375,-0.22532435,-1.91839552
1652.34375,-0.19509113,-1.82547200
1656.25,-0.19808586,-1.69189978
1660.15625,-0.17028870,-1.52729785
1664.0625,-0.14331605,-1.32965600
1667.96875,-0.12027095,-1.10750973
1671.875,-0.07552025,-0.88760149
1675.78125,-0.04974654,-0.70236135
1679.6875,-0.03902219,-0.56756943
1683.59375,-0.04171385,-0.47368494
1687.5,-0.00952500,-0.40022764
1691.40625,-0.00212978,-0.33277255
1695.3125,0.00167983,-0.26397538
1699.21875,-0.00346855,-0.18862765
1703.125,0.03231177,-0.10618252
1707.03125,0.04139395,-0.02357200
1710.9375,0.03492858,0.04844598
1714.84375,0.03985448,0.09733501
1718.75,0.05773624,0.10918737
1722.65625,0.06119091,0.07957137
1726.5625,0.04105163,0.02770573
1730.46875,0.00366274,-0.01250751
1734.375,0.04504995,-0.02393941
1738.28125,0.03608127,-0.02152975
1742.1875,0.03941402,-0.03115803
1746.09375,0.02120737,-0.06105340
1750.0,0.01097484,-0.09914105
1753.90625,0.02416262,-0.13195826
1757.8125,0.00914608,-0.15919183
1761.71875,0.00842725,-0.19106399
1765.625,0.00658471,-0.23537165
1769.53125,-0.00268753,-0.28744978
1773.4375,-0.02640523,-0.33367759
1777.34375,-0.00708754,-0.36585918
1781.25,-0.02405936,-0.38917875
1785.15625,-0.02424302,-0.41512907
1789.0625,-0.01930147,-0.44977227
1792.96875,-0.04354794,-0.48775792
1796.875,-0.03006461,-0.51376241
1800.78125,-0.04850166,-0.51117808
1804.6875,-0.03195949,-0.47531730
1808.59375,-0.01888417,-0.42042914
1812.5,-0.02139112,-0.37032047
1816.40625,-0.01893854,-0.33916548
1820.3125,-0.00380701,-0.32023469
1824.21875,-0.01006501,-0.29185563
1828.125,-0.01844977,-0.23706593
1832.03125,0.01959560,-0.16159666
1835.9375,0.01554209,-0.09098284
1839.84375,0.02858321,-0.04853375
1843.75,0.02002295,-0.03788358
1847.65625,0.02497436,-0.04358036
1851.5625,0.02584081,-0.04258895
1855.46875,0.01535385,-0.01834421
1859.375,0.03551724,0.02704533
1863.28125,0.03552178,0.07242457
1867.1875,0.06210051,0.09519626
1871.09375,0.01960202,0.09082372
1875.0,0.04078763,0.07164833
1878.90625,0.03510749,0.05008124
1882.8125,0.03207129,0.02934008
1886.71875,0.02596911,0.00609560
1890.625,0.02434310,-0.02569098
1894.53125,0.02523939,-0.07148571
1898.4375,-0.01198039,-0.13275029
1902.34375,0.01035218,-0.20767744
1906.25,-0.01048838,-0.29278359
1910.15625,-0.02624509,-0.37971127
1914.0625,-0.04358395,-0.45441943
1917.96875,-0.04942570,-0.50527203
1921.875,-0.03389581,-0.53071767
1925.78125,-0.05085302,-0.53723174
1929.6875,-0.05413346,-0.53360778
1933.59375,-0.04853671,-0.52915657
1937.5,-0.04300226,-0.53101641
1941.40625,-0.04812162,-0.53736120
1945.3125,-0.05394276,-0.53541952
1949.21875,-0.04443874,-0.50928158
1953.125,-0.03439414,-0.44985086
1957.03125,-0.03916190,-0.36124995
1960.9375,-0.00911535,-0.26335147
1964.84375,0.00259709,-0.18397357
1968.75,0.01069014,-0.13828553
1972.65625,-0.00058038,-0.11386352
1976.5625,0.00722039,-0.08144039
1980.46875,0.00809793,-0.02292888
1984.375,0.04280471,0.05201986
1988.28125,0.02710784,0.11653016
1992.1875,0.06437089,0.15213633
1996.09375,0.01826228,0.16467357
2000.0,0.04841018,0.17625998
2003.90625,0.05334463,0.20347090
2007.8125,0.04752462,0.24290776
2011.71875,0.05307079,0.27255079
2015.625,0.06709560,0.26590827
2019.53125,0.03842564,0.21167773
2023.4375,0.04318996,0.12344173
2027.34375,0.02125570,0.02954794
2031.25,0.00396004,-0.04730546
2035.15625,-0.00209343,-0.10391361
2039.0625,0.01176129,-0.15251230
2042.96875,-0.00348348,-0.20222144
2046.875,-0.03341478,-0.24857078
2050.78125,-0.02104924,-0.28587693
2054.6875,-0.02550576,-0.32316822
2058.59375,-0.03391967,-0.37808749
2062.5,-0.03214892,-0.45466980
2066.40625,-0.06766467,-0.53159708
2070.3125,-0.06467367,-0.57596976
2074.21875,-0.06776384,-0.57093054
2078.125,-0.05313335,-0.52932751
2082.03125,-0.03753042,-0.47927421
2085.9375,-0.05511287,-0.43856454
2089.84375,-0.04092297,-0.40505680
2093.75,-0.02847187,-0.36629578
2097.65625,-0.03701533,-0.31106311
2101.5625,-0.01357870,-0.23523834
2105.46875,-0.01565010,-0.14597563
2109.375,0.01629460,-0.06065478
2113.28125,0.02142448,0.00594630
2117.1875,0.00865937,0.05563439
2121.09375,0.01646161,0.10232089
2125.0,0.05302283,0.15363845
2128.90625,0.02761525,0.20397344
2132.8125,0.05765168,0.24536459
2136.71875,0.04319353,0.27774310
2140.625,0.03697653,0.30380821
2144.53125,0.07248365,0.31687590
2148.4375,0.05626668,0.30327269
2152.34375,0.03616271,0.25981921
2156.25,0.04150645,0.20153584
2160.15625,0.02981647,0.14908455
2164.0625,0.01985019,0.11106264
2167.96875,0.02180185,0.07724413
2171.875,0.02683447,0.02807526
2175.78125,-0.01322243,-0.04836027
2179.6875,-0.00095637,-0.14899971
2183.59375,-0.03541009,-0.26158458
2187.5,-0.03067183,-0.37230882
2191.40625,-0.06021476,-0.47103986
2195.3125,-0.07428793,-0.55889744
2199.21875,-0.08543141,-0.65494740
2203.125,-0.08883497,-0.78862661
2207.03125,-0.11893523,-0.97555017
2210.9375,-0.16146122,-1.19707656
2214.84375,-0.19216156,-1.40224254
2218.75,-0.20437062,-1.52148533
2222.65625,-0.16575223,-1.46839976
2226.5625,-0.15048566,-1.13424230
2230.46875,-0.05892555,-0.41125086
2234.375,0.09239504,0.73999608
2238.28125,0.29756433,2.21955633
2242.1875,0.52688909,3.77405143
2246.09375,0.71005106,5.06303644
2250.0,0.77404529,5.77477694
2253.90625,0.81560862,5.73595095
2257.8125,0.67924958,4.97189379
2261.71875,0.49006248,3.69375968
2265.625,0.32352963,2.21651387
2269.53125,0.09570798,0.84762073
2273.4375,-0.03537468,-0.20552149
2277.34375,-0.09698550,-0.87667453
2281.25,-0.16320808,-1.21689773
2285.15625,-0.17747909,-1.33021343
2289.0625,-0.17790775,-1.31718755
2292.96875,-0.16061580,-1.24811733
2296.875,-0.15465993,-1.15665758
2300.78125,-0.14512083,-1.04689264
2304.6875,-0.13141261,-0.91282374
2308.59375,-0.08601399,-0.75850075
2312.5,-0.09003369,-0.60293013
2316.40625,-0.05553708,-0.47053096
2320.3125,-0.05916034,-0.38094592
2324.21875,-0.04338550,-0.34504306
2328.125,-0.04174878,-0.36258593
2332.03125,-0.05499944,-0.41814831
2335.9375,-0.07642286,-0.48229447
2339.84375,-0.06338834,-0.52481669
2343.75,-0.07828220,-0.53224242
2347.65625,-0.06888464,-0.51598597
2351.5625,-0.07943159,-0.50444418
2355.46875,-0.04533017,-0.51876354
2359.375,-0.07747757,-0.54614645
2363.28125,-0.08969165,-0.54158896
2367.1875,-0.07139333,-0.46886507
2371.09375,-0.05172886,-0.34141150
2375.0,-0.01028835,-0.21522167
2378.90625,-0.01677589,-0.13891594
2382.8125,-0.02999479,-0.11343788
2386.71875,-0.01161234,-0.09862464
2390.625,-0.01498052,-0.05238099
2394.53125,-0.00722690,0.03579838
2398.4375,0.03189278,0.14167178
2402.34375,0.03474216,0.23310570
2406.25,0.02858162,0.29865190
2410.15625,0.03535360,0.34609622
2414.0625,0.05373545,0.37974280
2417.96875,0.05945400,0.39303488
2421.875,0.04226890,0.38239655
2425.78125,0.02995370,0.35410768
2429.6875,0.05811660,0.31585127
2433.59375,0.03317731,0.27321139
2437.5,0.01301669,0.23364329
2441.40625,0.02431928,0.20073991
2445.3125,0.01943480,0.16411299
2449.21875,0.01780490,0.10536233
2453.125,-0.01035661,0.01637566
2457.03125,-0.01332099,-0.09199728
2460.9375,-0.04345328,-0.19885841
2464.84375,-0.03353860,-0.28840294
2468.75,-0.06799705,-0.35786763
2472.65625,-0.05115259,-0.41402176
2476.5625,-0.06412717,-0.46271428
2480.46875,-0.09059262,-0.50316560
2484.375,-0.08402248,-0.53413975
2488.28125,-0.05864669,-0.55829471
2492.1875,-0.09166649,-0.57235909
2496.09375,-0.09695181,-0.56214124
2500.0,-0.07672749,-0.51857203
2503.90625,-0.06556927,-0.45172051
2507.8125,-0.05034551,-0.37986448
2511.71875,-0.05320171,-0.30993208
2515.625,-0.04710039,-0.23606221
2519.53125,-0.03351011,-0.15466495
2523.4375,-0.01007103,-0.07328282
2527.34375,-0.01011178,-0.00211512
2531.25,0.01000141,0.05949914
2535.15625,-0.00765988,0.12425115
2539.0625,0.01930301,0.20346205
2542.96875,0.03108926,0.29392171
2546.875,0.05164826,0.38000444
2550.78125,0.05002614,0.44749254
2554.6875,0.05047029,0.49196994
2558.59375,0.06236076,0.51427233
2562.5,0.05075372,0.51327169
2566.40625,0.08404982,0.48845205
2570.3125,0.03048423,0.44744867
2574.21875,0.03661121,0.40136310
2578.125,0.04940721,0.35012999
2582.03125,0.02730310,0.28174371
2585.9375,0.01129471,0.18899427
2589.84375,0.00863870,0.08148674
2593.75,-0.02064299,-0.01907957
2597.65625,-0.02506437,-0.09414766
2601.5625,-0.03546993,-0.14214855
2605.46875,-0.02458191,-0.17943622
2609.375,-0.05349668,-0.22797823
2613.28125,-0.04047293,-0.30143604
2617.1875,-0.07243579,-0.39693841
2621.09375,-0.07369360,-0.49331719
2625.0,-0.10036668,-0.55914903
2628.90625,-0.07309617,-0.57033008
2632.8125,-0.10346443,-0.52680546
2636.71875,-0.06832657,-0.45598751
2640.625,-0.05962343,-0.39627725
2644.53125,-0.05993160,-0.36896652
2648.4375,-0.06931515,-0.36284050
2652.34375,-0.05068248,-0.34554666
2656.25,-0.06898617,-0.28882495
2660.15625,-0.03471313,-0.18719706
2664.0625,-0.01200630,-0.05860748
2667.96875,-0.00373578,0.07142867
2671.875,0.00236026,0.18528089
2675.78125,0.03243849,0.27490520
2679.6875,0.02958985,0.33656442
2683.59375,0.03269038,0.36852330
2687.5,0.04075012,0.37151787
2691.40625,0.02954753,0.35079420
2695.3125,0.04230743,0.31942040
2699.21875,0.02087731,0.29697004
2703.125,0.00930920,0.29692557
2707.03125,0.03461445,0.31112534
2710.9375,0.04448649,0.31275705
2714.84375,0.01283950,0.28001302
2718.75,0.02233130,0.21359609
2722.65625,-0.01310763,0.13046135
2726.5625,-0.00271371,0.04609604
2730.46875,-0.01304794,-0.03382385
2734.375,-0.02434020,-0.10698365
2738.28125,-0.05247348,-0.16716136
2742.1875,-0.03859862,-0.20897931
2746.09375,-0.04620175,-0.23713675
2750.0,-0.05623250,-0.26601645
2753.90625,-0.04204376,-0.30883968
2757.8125,-0.07893392,-0.36668873
2761.71875,-0.07569741,-0.42767692
2765.625,-0.06481041,-0.47480068
2769.53125,-0.09530021,-0.49340421
2773.4375,-0.08784131,-0.47792071
2777.34375,-0.05942796,-0.43676192
2781.25,-0.07111276,-0.38563016
2785.15625,-0.06937920,-0.33415249
2789.0625,-0.04527149,-0.28261968
2792.96875,-0.05815221,-0.22906663
2796.875,-0.02989909,-0.17428109
2800.78125,-0.03371348,-0.11858805
2804.6875,-0.01858742,-0.05569676
2808.59375,-0.03265854,0.02383288
2812.5,0.01150689,0.11904304
2816.40625,0.02050954,0.21502659
2820.3125,0.02276649,0.29786137
2824.21875,0.02285176,0.36557099
2828.125,0.03806274,0.41879132
2832.03125,0.05570081,0.44957903
2835.9375,0.04932756,0.44901684
2839.84375,0.02917732,0.42143542
2843.75,0.03792915,0.38236251
2847.65625,0.02750579,0.34349537
2851.5625,0.03107380,0.30427331
2855.46875,0.00754148,0.25614041
2859.375,0.02677227,0.19252463
2863.28125,-0.00989283,0.11655747
2867.1875,-0.02231828,0.03847088
2871.09375,-0.01608011,-0.03499720
2875.0,-0.01038950,-0.10235563
2878.90625,-0.06002231,-0.15922794
2882.8125,-0.04784597,-0.20128191
2886.71875,-0.04884337,-0.23656338
2890.625,-0.03055765,-0.28052941
2894.53125,-0.08648828,-0.33572188
2898.4375,-0.05846172,-0.38687623
2902.34375,-0.08292945,-0.41746294
2906.25,-0.07841352,-0.42456743
2910.15625,-0.06152111,-0.41733038
2914.0625,-0.06933410,-0.40368938
2917.96875,-0.08183107,-0.38136894
2921.875,-0.06206083,-0.34436566
2925.78125,-0.05691264,-0.29418156
2929.6875,-0.04195236,-0.23830299
2933.59375,-0.04664499,-0.17954332
2937.5,-0.03442129,-0.11273719
2941.40625,-0.02078563,-0.03224691
2945.3125,-0.00722159,0.06027510
2949.21875,-0.00083066,0.15435082
2953.125,0.01442129,0.23316936
2957.03125,0.02399933,0.27969259
2960.9375,0.02608140,0.28778139
2964.84375,0.01867712,0.27117342
2968.75,0.01093101,0.25780419
2972.65625,0.02033028,0.26917407
2976.5625,0.02260941,0.30194625
2980.46875,0.02590303,0.32927892
2984.375,0.03671686,0.32227629
2988.28125,0.02003648,0.27375203
2992.1875,0.00351899,0.20159611
2996.09375,-0.00784623,0.12797347
3000.0,-0.00125786,0.05945453
3003.90625,-0.01128318,-0.00827901
3007.8125,-0.02970243,-0.07310645
3011.71875,-0.04537862,-0.12560968
3015.625,-0.03824072,-0.16521218
3019.53125,-0.03737651,-0.20546927
3023.4375,-0.04676180,-0.25792596
3027.34375,-0.07303068,-0.31777906
3031.25,-0.06593052,-0.37024406
3035.15625,-0.06685299,-0.40471604
3039.0625,-0.07859527,-0.41818991
3042.96875,-0.06899636,-0.41099104
3046.875,-0.07518583,-0.38462514
3050.78125,-0.05444736,-0.34182596
3054.6875,-0.07011303,-0.28746223
3058.59375,-0.03821952,-0.23025997
3062.5,-0.03982943,-0.18008403
3066.40625,-0.04073039,-0.13994031
3070.3125,-0.03487355,-0.10325100
3074.21875,-0.01329945,-0.06053862
3078.125,-0.02654926,-0.00679673
3082.03125,-0.00921279,0.05485134
3085.9375,-0.00957432,0.11212184
3089.84375,0.01897361,0.14942878
3093.75,0.00332918,0.16175887
3097.65625,0.00939568,0.16315107
3101.5625,-0.01486758,0.17541167
3105.46875,0.02301283,0.20547806
3109.375,0.01768458,0.23831865
3113.28125,0.02946669,0.25522390
3117.1875,0.00436594,0.25364798
3121.09375,0.00958513,0.24402815
3125.0,0.03261523,0.23316626
3128.90625,0.00346249,0.21875583
3132.8125,0.00989309,0.19636664
3136.71875,0.01259106,0.16455978
3140.625,-0.00393225,0.12406743
3144.53125,-0.01100508,0.07462469
3148.4375,-0.00420147,0.01407968
3152.34375,-0.03206057,-0.05657949
3156.25,-0.02540812,-0.12797162
3160.15625,-0.04169429,-0.18560554
3164.0625,-0.05749725,-0.22059909
3167.96875,-0.04806269,-0.23841433
3171.875,-0.03633542,-0.25491059
3175.78125,-0.05698319,-0.28055829
3179.6875,-0.06482817,-0.31042430
3183.59375,-0.05929539,-0.33064032
3187.5,-0.06185130,-0.33003935
3191.40625,-0.04801065,-0.30479753
3195.3125,-0.06326225,-0.25847760
3199.21875,-0.03654152,-0.20173959
3203.125,-0.03772765,-0.14852427
3207.03125,-0.02267618,-0.10814902
3210.9375,-0.03711813,-0.08101269
3214.84375,-0.01424079,-0.06157282
3218.75,-0.03136304,-0.04249667
3222.65625,-0.00605286,-0.01536755
3226.5625,-0.01019919,0.02910547
3230.46875,-0.01556123,0.09588189
3234.375,0.01216720,0.17639497
3238.28125,0.02421044,0.24761856
3242.1875,0.03145861,0.28693193
3246.09375,0.01774193,0.28849450
3250.0,0.01077651,0.26286563
3253.90625,0.03177681,0.22451882
3257.8125,0.00201314,0.18447353
3261.71875,0.01356289,0.15089366
3265.625,-0.00833809,0.12892829
3269.53125,0.00796768,0.11837579
3273.4375,0.00547595,0.11399239
3277.34375,-0.00689635,0.10827860
3281.25,0.00577813,0.09321129
3285.15625,-0.01337083,0.06118682
3289.0625,-0.01123383,0.00736332
3292.96875,-0.01550794,-0.06570850
3296.875,-0.02827745,-0.14350270
3300.78125,-0.06205895,-0.20452094
3304.6875,-0.04020461,-0.23747951
3308.59375,-0.03665975,-0.25056615
3312.5,-0.05351700,-0.25758684
3316.40625,-0.04262803,-0.25985694
3320.3125,-0.06235000,-0.24900450
3324.21875,-0.03723814,-0.22492613
3328.125,-0.03686734,-0.20260927
3332.03125,-0.03838418,-0.19793138
3335.9375,-0.04742291,-0.21128556
3339.84375,-0.03618213,-0.22858922
3343.75,-0.05305685,-0.23578095
3347.65625,-0.04630277,-0.23092729
3351.5625,-0.03240322,-0.22431135
3355.46875,-0.04893724,-0.22973163
3359.375,-0.05086422,-0.25991449
3363.28125,-0.05972589,-0.32941109
3367.1875,-0.06279694,-0.45089191
3371.09375,-0.10281298,-0.61903411
3375.0,-0.11997773,-0.79763567
3378.90625,-0.13342179,-0.92203742
3382.8125,-0.14115435,-0.91104758
3386.71875,-0.08954549,-0.68165755
3390.625,-0.05209151,-0.17042057
3394.53125,0.06762223,0.63667315
3398.4375,0.23347281,1.68196583
3402.34375,0.37825620,2.83981872
3406.25,0.50389493,3.93632412
3410.15625,0.63273150,4.76918125
3414.0625,0.71224612,5.14494038
3417.96875,0.65772080,4.94770765
3421.875,0.58058602,4.20156622
3425.78125,0.40004510,3.07294321
3429.6875,0.20729199,1.80243385
3433.59375,0.07894075,0.60791826
3437.5,-0.06033206,-0.37890553
3441.40625,-0.15210631,-1.11316359
3445.3125,-0.23156229,-1.60039842
3449.21875,-0.26591867,-1.86444283
3453.125,-0.27138445,-1.93599701
3457.03125,-0.27146435,-1.85568225
3460.9375,-0.23099837,-1.67763007
3464.84375,-0.20292981,-1.46118116
3468.75,-0.19010033,-1.25226033
3472.65625,-0.14632232,-1.07002151
3476.5625,-0.13754748,-0.90837538
3480.46875,-0.10737983,-0.74922109
3484.375,-0.10196725,-0.58056957
3488.28125,-0.04904964,-0.40915424
3492.1875,-0.05658627,-0.25749758
3496.09375,-0.02421044,-0.14872865
3500.0,-0.01604099,-0.09123567
3503.90625,-0.01840325,-0.07161857
3507.8125,-0.01688157,-0.06141755
3511.71875,-0.02801912,-0.03693646
3515.625,-0.00184528,0.00265227
3519.53125,-0.00186061,0.03699491
3523.4375,0.00660171,0.04619712
3527.34375,-0.00023212,0.03252884
3531.25,-0.01720950,0.02074688
3535.15625,-0.01451836,0.03419286
3539.0625,0.01165718,0.07027243
3542.96875,0.02106811,0.10405955
3546.875,-0.00114571,0.11547546
3550.78125,0.00131453,0.10591225
3554.6875,0.00590202,0.08894417
3558.59375,0.00407224,0.07377419
3562.5,0.00434532,0.06038276
3566.40625,-0.00347237,0.04556938
3570.3125,0.00053564,0.02996212
3574.21875,-0.01028824,0.01823058
3578.125,-0.00664400,0.01198267
3582.03125,0.00072281,0.00441193
3585.9375,-0.00886282,-0.01490263
3589.84375,-0.01929708,-0.05022956
3593.75,-0.01047862,-0.09508180
3597.65625,-0.02945421,-0.13445190
3601.5625,-0.02623574,-0.15294991
3605.46875,-0.03296468,-0.14746810
3609.375,-0.01881974,-0.13312237
3613.28125,-0.01611549,-0.13080102
3617.1875,-0.02958664,-0.14670177
3621.09375,-0.03695423,-0.16849832
3625.0,-0.02127477,-0.18100287
3628.90625,-0.02425678,-0.17851366
3632.8125,-0.04609778,-0.16376494
3636.71875,-0.01517327,-0.14466098
3640.625,-0.01490653,-0.13138796
3644.53125,-0.02791922,-0.12905192
3648.4375,-0.02411535,-0.13307250
3652.34375,-0.02261474,-0.13398863
3656.25,-0.02493125,-0.12550218
3660.15625,-0.01153294,-0.10875103
3664.0625,-0.02277084,-0.09134559
3667.96875,-0.01492393,-0.08194420
3671.875,-0.00665394,-0.08281524
3675.78125,-0.02572263,-0.08591930
3679.6875,-0.00880549,-0.07812700
3683.59375,-0.01496722,-0.05226569
3687.5,-0.00301618,-0.01341150
3691.40625,-0.00145618,0.02440375
3695.3125,0.00413344,0.04775500
3699.21875,0.00955779,0.05344534
3703.125,-0.00344504,0.05068747
3707.03125,0.01278869,0.05236528
3710.9375,-0.01129854,0.06242535
3714.84375,0.01987025,0.07219568
3718.75,0.00662188,0.07085939
3722.65625,0.01542927,0.05870619
3726.5625,-0.01906272,0.04543728
3730.46875,0.01785458,0.03537370
3734.375,-0.00508806,0.02097122
3738.28125,-0.00077880,-0.00798265
3742.1875,-0.00689451,-0.05353467
3746.09375,-0.01257819,-0.10563300
3750.0,-0.02092340,-0.14472610
3753.90625,-0.04284826,-0.15453418
3757.8125,-0.00716621,-0.13872419
3761.71875,-0.00268737,-0.11949245
3765.625,-0.03494817,-0.11613397
3769.53125,-0.01363328,-0.13143395
3773.4375,-0.01998240,-0.15787868
3777.34375,-0.02794936,-0.18725164
3781.25,-0.03404902,-0.21397574
3785.15625,-0.02483305,-0.23557587
3789.0625,-0.03857789,-0.25091839
3792.96875,-0.03297758,-0.25677887
3796.875,-0.03286426,-0.24649553
3800.78125,-0.03227296,-0.21385235
3804.6875,-0.02626344,-0.16201237
3808.59375,-0.00830855,-0.10817607
3812.5,-0.00299733,-0.07222292
3816.40625,-0.01606251,-0.05758700
3820.3125,-0.00243813,-0.04786851
3824.21875,0.00083643,-0.02428352
3828.125,-0.01317164,0.01547181
3832.03125,0.02542437,0.05549133
3835.9375,0.00258239,0.07835706
3839.84375,0.03261603,0.08404133
3843.75,-0.00645592,0.09054390
3847.65625,0.01394706,0.11451647
3851.5625,0.03342440,0.15425844
3855.46875,0.02960382,0.19394562
3859.375,0.02957667,0.21852739
3863.28125,0.02129217,0.21902105
3867.1875,0.04396657,0.19090718
3871.09375,0.01672707,0.13817537
3875.0,0.01597882,0.07722895
3878.90625,-0.00139820,0.02769588
3882.8125,-0.00731868,-0.00481956
3886.71875,0.01345962,-0.03375282
3890.625,0.00805807,-0.07410922
3894.53125,-0.03567800,-0.12242702
3898.4375,-0.02581892,-0.16280328
3902.34375,-0.00889093,-0.19040087
3906.25,-0.02716618,-0.21738651
3910.15625,-0.02009106,-0.25479919
3914.0625,-0.05635167,-0.29707313
3917.96875,-0.03424070,-0.32722411
3921.875,-0.03713790,-0.33293474
3925.78125,-0.03634803,-0.31523198
3929.6875,-0.04372903,-0.28596270
3933.59375,-0.03406402,-0.26036054
3937.5,-0.00888186,-0.24656858
3941.40625,-0.03907526,-0.23632418
3945.3125,-0.02187178,-0.20882674
3949.21875,-0.01905376,-0.14913224
3953.125,-0.01236313,-0.06465448
3957.03125,0.01924059,0.01642867
3960.9375,0.02323688,0.06681160
3964.84375,0.00628397,0.08419897
3968.75,0.02351644,0.09267551
3972.65625,0.01309409,0.11898828
3976.5625,0.03212883,0.16812515
3980.46875,0.02815480,0.21942353
3984.375,0.05400022,0.24455456
3988.28125,0.04400362,0.23304161
3992.1875,0.02693908,0.20294560
3996.09375,0.01794269,0.18288390
4000.0,0.02486730,0.18113399
4003.90625,0.06155827,0.17780700
4007.8125,0.02054038,0.15077457
4011.71875,0.01049389,0.10175160
4015.625,0.01390634,0.05154857
4019.53125,0.00984939,0.01692481
4023.4375,0.01642168,-0.00257238
4027.34375,-0.00747191,-0.02045292
4031.25,0.01461798,-0.05016785
4035.15625,-0.01268881,-0.09380890
4039.0625,-0.01597910,-0.14316465
4042.96875,-0.00869199,-0.19160934
4046.875,-0.02929891,-0.24044825
4050.78125,-0.03213048,-0.29252487
4054.6875,-0.03170172,-0.34406391
4058.59375,-0.05052716,-0.38478690
4062.5,-0.04906994,-0.40516636
4066.40625,-0.03380549,-0.40217847
4070.3125,-0.04962591,-0.37799230
4074.21875,-0.04384773,-0.33753261
4078.125,-0.02106150,-0.28856561
4082.03125,-0.01951064,-0.23756732
4085.9375,-0.01595873,-0.18450806
4089.84375,-0.02647359,-0.12865424
4093.75,0.01925521,-0.07718519
4097.65625,0.00180790,-0.03760299
4101.5625,0.00818786,-0.00310384
4105.46875,0.01805425,0.04374614
4109.375,0.01780644,0.11123048
4113.28125,0.03176349,0.18763535
4117.1875,0.06546375,0.25125971
4121.09375,0.02800818,0.28900284
4125.0,0.07715295,0.30513754
4128.90625,0.04086151,0.31575972
4132.8125,0.04174114,0.33393937
4136.71875,0.06912712,0.35439539
4140.625,0.07361471,0.35483912
4144.53125,0.04192861,0.31717747
4148.4375,0.05178020,0.24440220
4152.34375,0.02604849,0.15652333
4156.25,0.02384529,0.07487734
4160.15625,0.01095831,0.00952685
4164.0625,0.01301433,-0.04284789
4167.96875,-0.00538113,-0.09181417
4171.875,-0.00486979,-0.14535189
4175.78125,-0.01933266,-0.20700768
4179.6875,-0.02327272,-0.27573198
4183.59375,-0.02973748,-0.34533530
4187.5,-0.04498798,-0.40497053
4191.40625,-0.04646382,-0.44344485
4195.3125,-0.05928484,-0.45647377
4199.21875,-0.04123688,-0.45087159
4203.125,-0.03872432,-0.43971065
4207.03125,-0.05077825,-0.43169749
4210.9375,-0.04686157,-0.42595285
4214.84375,-0.04554228,-0.41630307
4218.75,-0.03845393,-0.39719656
4222.65625,-0.02396650,-0.36391780
4226.5625,-0.03786595,-0.31030315
4230.46875,-0.02598864,-0.23235346
4234.375,0.00194894,-0.13531663
4238.28125,0.02159592,-0.03154984
4242.1875,0.01223459,0.06983829
4246.09375,0.03956842,0.16592199
4250.0,0.04999689,0.25261158
4253.90625,0.04761027,0.31916195
4257.8125,0.07964087,0.35240018
4261.71875,0.05647041,0.34882763
4265.625,0.06302716,0.32335219
4269.53125,0.04956064,0.30154669
4273.4375,0.05092259,0.29916090
4277.34375,0.06281328,0.30956161
4281.25,0.06506322,0.31225565
4285.15625,0.05047289,0.29127157
4289.0625,0.04577712,0.24300219
4292.96875,0.03985317,0.17207284
4296.875,0.03879403,0.08840422
4300.78125,-0.00036556,0.00582991
4304.6875,0.01952046,-0.06608195
4308.59375,-0.01035220,-0.12984022
4312.5,-0.00436196,-0.19428271
4316.40625,-0.01032154,-0.26109490
4320.3125,-0.04533083,-0.32200298
4324.21875,-0.02267796,-0.37063232
4328.125,-0.04162497,-0.41174483
4332.03125,-0.05356917,-0.45492023
4335.9375,-0.02867722,-0.50089473
4339.84375,-0.06659882,-0.53556550
4343.75,-0.06889465,-0.54026175
4347.65625,-0.04601647,-0.51101136
4351.5625,-0.03889317,-0.46353209
4355.46875,-0.04102157,-0.41610292
4359.375,-0.02440255,-0.37246224
4363.28125,-0.05160645,-0.32485792
4367.1875,-0.00256834,-0.26940310
4371.09375,-0.00359078,-0.21082062
4375.0,-0.01024289,-0.15269099
4378.90625,-0.00418036,-0.09389894
4382.8125,0.02180050,-0.03780483
4386.71875,0.02485890,0.00462808
4390.625,0.01351052,0.02394801
4394.53125,0.02131794,0.01847537
4398.4375,0.01635727,-0.00804161
4402.34375,0.02277403,-0.04880391
4406.25,-0.00839884,-0.09395846
4410.15625,0.00887351,-0.13217638
4414.0625,-0.00474409,-0.15181305
4417.96875,-0.00172810,-0.13854223
4421.875,0.01724583,-0.07174665
4425.78125,0.03049569,0.07738632
4429.6875,0.05875473,0.34052411
4433.59375,0.11023558,0.73476654
4437.5,0.20856901,1.24488783
4441.40625,0.24993463,1.82325101
4445.3125,0.35931718,2.40495181
4449.21875,0.40767455,2.92315578
4453.125,0.48375526,3.31899357
4457.03125,0.49124262,3.54725575
4460.9375,0.51024038,3.57869172
4464.84375,0.48357683,3.40187359
4468.75,0.43794861,3.02671790
4472.65625,0.34862113,2.48514676
4476.5625,0.26879242,1.82578552
4480.46875,0.18625064,1.10873806
4484.375,0.05718188,0.40199855
4488.28125,0.00173878,-0.22924769
4492.1875,-0.09311350,-0.73941505
4496.09375,-0.12110392,-1.11158514
4500.0,-0.17194328,-1.35300434
4503.90625,-0.16779317,-1.48252082
4507.8125,-0.19151931,-1.51776218
4511.71875,-0.18612885,-1.46999657
4515.625,-0.15048006,-1.34845948
4519.53125,-0.14307056,-1.16716397
4523.4375,-0.11635228,-0.94975549
4527.34375,-0.07496272,-0.72984934
4531.25,-0.04226627,-0.53888416
4535.15625,-0.02385140,-0.38566798
4539.0625,-0.03458340,-0.25240463
4542.96875,0.01150042,-0.11740093
4546.875,0.02634143,0.02142746
4550.78125,0.04469067,0.14722425
4554.6875,0.05455637,0.24006025
4558.59375,0.05804637,0.28683648
4562.5,0.05211613,0.28128502
4566.40625,0.06812406,0.22442511
4570.3125,0.03694134,0.13077055
4574.21875,0.02362189,0.02962184
4578.125,0.00787614,-0.04980792
4582.03125,0.00877122,-0.09888374
4585.9375,0.01257913,-0.13346957
4589.84375,-0.00660384,-0.17654669
4593.75,0.00016256,-0.23700422
4597.65625,-0.02570150,-0.30434597
4601.5625,-0.03981050,-0.36379197
4605.46875,-0.02137135,-0.41516653
4609.375,-0.04657600,-0.47153658
4613.28125,-0.03309510,-0.53703928
4617.1875,-0.07442467,-0.59223819
4621.09375,-0.06187854,-0.60759264
4625.0,-0.04914777,-0.57008314
4628.90625,-0.05011005,-0.49383563
4632.8125,-0.02772704,-0.40793765
4636.71875,-0.02125123,-0.33579314
4640.625,-0.00977946,-0.27990466
4644.53125,-0.01239228,-0.22151165
4648.4375,-0.00085375,-0.13847907
4652.34375,0.01322520,-0.02859574
4656.25,0.05033869,0.08508799
4660.15625,0.03994391,0.17424269
4664.0625,0.06450284,0.22997631
4667.96875,0.05267308,0.26705429
4671.875,0.05306690,0.30478048
4675.78125,0.07754499,0.34625545
4679.6875,0.09168217,0.38002643
4683.59375,0.06224450,0.39855015
4687.5,0.07591745,0.40472630
4691.40625,0.08794668,0.40162385
4695.3125,0.07338119,0.38699326
4699.21875,0.06725793,0.35742995
4703.125,0.07272709,0.31056789
4707.03125,0.05666666,0.24549802
4710.9375,0.04697213,0.16548379
4714.84375,0.02803634,0.07725963
4718.75,0.02609811,-0.01507548
4722.65625,0.00535412,-0.11200023
4726.5625,0.01727661,-0.21078373
4730.46875,-0.04734515,-0.30001777
4734.375,-0.01862824,-0.36918437
4738.28125,-0.01968283,-0.41977367
4742.1875,-0.04680305,-0.45825773
4746.09375,-0.03355809,-0.48232624
4750.0,-0.05267533,-0.48304367
4753.90625,-0.03720630,-0.45972782
4757.8125,-0.02517729,-0.42754784
4761.71875,-0.04531042,-0.40846345
4765.625,-0.01133392,-0.41281331
4769.53125,-0.03209829,-0.42592227
4773.4375,-0.05309277,-0.41485873
4777.34375,-0.01986275,-0.35623971
4781.25,-0.00332090,-0.25719348
4785.15625,0.00864517,-0.14489914
4789.0625,0.01692656,-0.04038903
4792.96875,0.03291798,0.05336124
4796.875,0.03689883,0.14324784
4800.78125,0.06536446,0.23161137
4804.6875,0.06247288,0.30855605
4808.59375,0.06484091,0.35546321
4812.5,0.09490929,0.35892519
4816.40625,0.06222217,0.32713503
4820.3125,0.05774698,0.29059494
4824.21875,0.07297073,0.28049505
4828.125,0.04946467,0.30463138
4832.03125,0.08312287,0.34151673
4835.9375,0.06859354,0.35523659
4839.84375,0.09102378,0.32241791
4843.75,0.04657440,0.25142604
4847.65625,0.03433870,0.17170313
4851.5625,0.04676035,0.10139308
4855.46875,0.03560741,0.03223523
4859.375,0.02512610,-0.05070606
4863.28125,-0.00062090,-0.14388627
4867.1875,-0.01100675,-0.22723000
4871.09375,-0.00697430,-0.28649318
4875.0,-0.02390765,-0.32686877
4878.90625,-0.02230014,-0.36537147
4882.8125,-0.02133277,-0.41291746
4886.71875,-0.04215332,-0.46215215
4890.625,-0.03396035,-0.49125522
4894.53125,-0.06405799,-0.48315620
4898.4375,-0.02014413,-0.44377589
4902.34375,-0.01738515,-0.39770871
4906.25,-0.02829385,-0.36332035
4910.15625,-0.02610888,-0.33670923
4914.0625,-0.01353244,-0.30109543
4917.96875,-0.00297526,-0.24489698
4921.875,0.00318689,-0.16916846
4925.78125,0.00668162,-0.08499699
4929.6875,0.02845306,-0.00737062
4933.59375,0.04984840,0.05364557
4937.5,0.02205521,0.09935979
4941.40625,0.04788062,0.13780729
4945.3125,0.05195713,0.17398047
4949.21875,0.05456074,0.20906632
4953.125,0.07282372,0.24671169
4957.03125,0.04994885,0.29296669
4960.9375,0.07266150,0.34685898
4964.84375,0.08750936,0.39385331
4968.75,0.08595041,0.41357794
4972.65625,0.07948656,0.39501727
4976.5625,0.07002258,0.34377682
4980.46875,0.06906757,0.27767047
4984.375,0.05310255,0.21602502
4988.28125,0.04825121,0.16748147
4992.1875,0.04166087,0.12321003
4996.09375,0.04098915,0.06352950
5000.0,0.02568319,-0.02459107
5003.90625,0.01439863,-0.13425180
5007.8125,-0.02313944,-0.24280047
5011.71875,-0.01015707,-0.32932147
5015.625,-0.01844785,-0.38672668
5019.53125,-0.03261007,-0.41935596
5023.4375,-0.04281980,-0.43678331
5027.34375,-0.02522224,-0.45087630
5031.25,-0.03300799,-0.46932873
5035.15625,-0.03684848,-0.48675284
5039.0625,-0.04393756,-0.48570889
5042.96875,-0.03580230,-0.44998220
5046.875,-0.02764096,-0.37915346
5050.78125,-0.01099770,-0.29298493
5054.6875,0.01271399,-0.21895303
5058.59375,0.00392572,-0.16956991
5062.5,-0.01330899,-0.13386668
5066.40625,0.02492849,-0.09452310
5070.3125,0.03450042,-0.04510365
5074.21875,0.02556125,0.01482046
5078.125,0.03004883,0.08879220
5082.03125,0.05329803,0.17636889
5085.9375,0.06832155,0.26273334
5089.84375,0.06919739,0.32435751
5093.75,0.08636632,0.34705904
5097.65625,0.06799399,0.33835754
5101.5625,0.07007124,0.32022581
5105.46875,0.05826819,0.30621114
5109.375,0.07762355,0.28651744
5113.28125,0.06424893,0.24032363
5117.1875,0.06295254,0.16377765
5121.09375,0.02253255,0.08069126
5125.0,0.02086200,0.02068855
5128.90625,0.03845279,-0.01055419
5132.8125,0.03283424,-0.03392890
5136.71875,0.01182241,-0.07346415
5140.625,0.00468886,-0.13690114
5144.53125,0.00894423,-0.21443273
5148.4375,-0.01694864,-0.28778416
5152.34375,-0.01358773,-0.34301272
5156.25,-0.03073782,-0.38142297
5160.15625,-0.03066605,-0.41789785
5164.0625,-0.01666032,-0.46387675
5167.96875,-0.04894615,-0.50992078
5171.875,-0.03709714,-0.52799571
5175.78125,-0.05664419,-0.49499851
5179.6875,-0.02021643,-0.41545445
5183.59375,-0.01765701,-0.32056049
5187.5,0.01967597,-0.24305734
5191.40625,-0.01353938,-0.19220352
5195.3125,0.00081287,-0.15487406
5199.21875,0.01856636,-0.11779954
5203.125,0.02135454,-0.08091722
5207.03125,0.01754669,-0.04992078
5210.9375,0.04335736,-0.02450608
5214.84375,0.00299434,0.00185328
5218.75,0.04792096,0.03281150
5222.65625,0.03888390,0.06556354
5226.5625,0.04312027,0.09834193
5230.46875,0.04340158,0.13475382
5234.375,0.06228529,0.17665677
5238.28125,0.04688206,0.21666113
5242.1875,0.06079113,0.23948278
5246.09375,0.07820486,0.23125884
5250.0,0.04601226,0.19102259
5253.90625,0.05200633,0.13388152
5257.8125,0.03872123,0.08140547
5261.71875,0.02443182,0.04676500
5265.625,0.04092724,0.02507437
5269.53125,0.04195018,-0.00215911
5273.4375,0.01226215,-0.05007996
5277.34375,0.01396612,-0.11821738
5281.25,0.00488238,-0.19336832
5285.15625,-0.00866106,-0.25893354
5289.0625,0.00440834,-0.30131316
5292.96875,-0.03456650,-0.31460768
5296.875,0.00330230,-0.30593643
5300.78125,-0.02422648,-0.29573056
5304.6875,0.00142355,-0.30657801
5308.59375,-0.01461992,-0.34567359
5312.5,-0.02135572,-0.39583555
5316.40625,-0.03926589,-0.42653590
5320.3125,-0.03256389,-0.41786733
5324.21875,-0.00528899,-0.37386748
5328.125,-0.01809835,-0.31317902
5332.03125,0.00624762,-0.25224847
5335.9375,-0.01449802,-0.19946575
5339.84375,0.01954782,-0.15808365
5343.75,0.01224973,-0.12663011
5347.65625,0.02309935,-0.09752554
5351.5625,0.01323655,-0.06289009
5355.46875,0.02384228,-0.02478710
5359.375,0.03945676,0.00527614
5363.28125,0.03880693,0.02089594
5367.1875,0.02754637,0.03056528
5371.09375,0.04232211,0.04709078
5375.0,0.02082714,0.06750913
5378.90625,0.05932533,0.06790704
5382.8125,0.03559227,0.02175756
5386.71875,0.01340885,-0.07743192
5390.625,0.00319339,-0.21372394
5394.53125,-0.02099858,-0.36362076
5398.4375,-0.02528140,-0.50685561
5402.34375,-0.07729866,-0.62810844
5406.25,-0.06017961,-0.71725607
5410.15625,-0.04887358,-0.76397580
5414.0625,-0.09269337,-0.74491733
5417.96875,-0.04742489,-0.62055957
5421.875,-0.01734948,-0.34848243
5425.78125,0.04934371,0.10106252
5429.6875,0.12209804,0.73224717
5433.59375,0.25039685,1.51067030
5437.5,0.33355790,2.35801792
5441.40625,0.46628374,3.16142297
5445.3125,0.55336940,3.79590058
5449.21875,0.59619206,4.15547609
5453.125,0.61221069,4.18374825
5457.03125,0.54900718,3.88964248
5460.9375,0.49249366,3.33767796
5464.84375,0.36884254,2.61579967
5468.75,0.28902170,1.80338919
5472.65625,0.17612448,0.96458846
5476.5625,0.03495878,0.16204356
5480.46875,-0.03546327,-0.53814018
5484.375,-0.10944163,-1.07950163
5488.28125,-0.17546308,-1.43102884
5492.1875,-0.18209012,-1.59637630
5496.09375,-0.18508649,-1.61219645
5500.0,-0.16933689,-1.53048491
5503.90625,-0.16880469,-1.39619887
5507.8125,-0.14003658,-1.23922741
5511.71875,-0.10192703,-1.07802844
5515.625,-0.08794657,-0.91920120
5519.53125,-0.08838100,-0.75692230
5523.4375,-0.05162610,-0.58632398
5527.34375,-0.01921432,-0.41965857
5531.25,0.00880752,-0.28093755
5535.15625,-0.00250046,-0.18363881
5539.0625,0.01164317,-0.12078035
5542.96875,0.01491076,-0.07873207
5546.875,0.03307171,-0.05555370
5550.78125,0.02179303,-0.06227892
5554.6875,0.02418329,-0.10685020
5558.59375,-0.00053618,-0.17784646
5562.5,0.00508341,-0.24446319
5566.40625,-0.01139980,-0.27432939
5570.3125,-0.00575113,-0.25568280
5574.21875,0.00655434,-0.20620897
5578.125,0.01417422,-0.16043811
5582.03125,0.01169485,-0.14602686
5585.9375,0.00304942,-0.16797101
5589.84375,0.02233109,-0.20854834
5593.75,-0.02009941,-0.24003474
5597.65625,-0.00536761,-0.24536511
5601.5625,0.01298433,-0.23149273
5605.46875,0.00008108,-0.21928415
5609.375,-0.00156455,-0.22202285
5613.28125,0.00940586,-0.23696381
5617.1875,-0.00963109,-0.25140938
5621.09375,-0.00759035,-0.25241235
5625.0,-0.00159594,-0.23471214
5628.90625,0.02761829,-0.20149508
5632.8125,-0.00811720,-0.15953968
5636.71875,0.00239889,-0.12009314
5640.625,0.03968125,-0.10039529
5644.53125,0.01923671,-0.10930514
5648.4375,0.01340272,-0.13112710
5652.34375,-0.00401938,-0.13764606
5656.25,0.02229909,-0.11830974
5660.15625,0.02143530,-0.08918633
5664.0625,0.03470799,-0.07098740
5667.96875,0.01381957,-0.06645750
5671.875,0.01642555,-0.06313632
5675.78125,0.03527272,-0.05217912
5679.6875,0.01316834,-0.03795409
5683.59375,0.04385478,-0.03067351
5687.5,0.02165083,-0.03373693
5691.40625,0.02784881,-0.04037344
5695.3125,0.01423396,-0.04389074
5699.21875,0.04027810,-0.04829561
5703.125,0.01083478,-0.06396616
5707.03125,0.03188063,-0.09402151
5710.9375,0.00733934,-0.12861463
5714.84375,0.01605533,-0.15252481
5718.75,-0.00171596,-0.15788166
5722.65625,0.01568800,-0.15058206
5726.5625,0.02296440,-0.14481257
5730.46875,-0.00467738,-0.15260690
5734.375,0.02167777,-0.17859162
5738.28125,-0.00144002,-0.21890919
5742.1875,-0.01337718,-0.26201862
5746.09375,-0.00266437,-0.29580659
5750.0,-0.01254456,-0.31613913
5753.90625,-0.00509272,-0.32512176
5757.8125,-0.01444614,-0.32297835
5761.71875,-0.02762198,-0.30861881
5765.625,0.00698231,-0.28848481
5769.53125,-0.00451670,-0.27614638
5773.4375,-0.01042106,-0.27823943
5777.34375,0.00265326,-0.28428510
5781.25,-0.01949028,-0.27368119
5785.15625,-0.00353246,-0.23504063
5789.0625,0.01029113,-0.18058924
5792.96875,0.02125367,-0.13875484
5796.875,0.00952550,-0.12895793
5800.78125,0.02054621,-0.14313507
5804.6875,-0.00830076,-0.15242584
5808.59375,0.01539570,-0.13302647
5812.5,0.02869314,-0.08514156
5816.40625,0.03659860,-0.02687384
5820.3125,0.00813928,0.02212721
5824.21875,0.04331278,0.04576129
5828.125,0.05529832,0.03458190
5832.03125,0.02828606,-0.00196921
5835.9375,0.00514201,-0.03559789
5839.84375,0.03371865,-0.04332548
5843.75,0.03243946,-0.02698853
5847.65625,0.01749164,-0.00767376
5851.5625,0.03754810,-0.00918000
5855.46875,0.03990766,-0.04252584
5859.375,0.00275120,-0.09621961
5863.28125,-0.00123672,-0.14649653
5867.1875,0.01087954,-0.18286708
5871.09375,0.01841657,-0.21573851
5875.0,-0.01546325,-0.25655890
5878.90625,-0.01386919,-0.30111799
5882.8125,-0.01157938,-0.33535793
5886.71875,-0.02185238,-0.34997493
5890.625,-0.01806586,-0.34798148
5894.53125,-0.00581394,-0.34228507
5898.4375,-0.03092687,-0.34655252
5902.34375,-0.01288008,-0.36659381
5906.25,-0.02255818,-0.39668378
5910.15625,-0.02606547,-0.42096025
5914.0625,-0.03916851,-0.42259946
5917.96875,-0.01801857,-0.39685729
5921.875,-0.01229989,-0.35363582
5925.78125,-0.02591494,-0.30771923
5929.6875,-0.00163131,-0.27067184
5933.59375,0.00325534,-0.24759990
5937.5,-0.00279600,-0.23277751
5941.40625,-0.01091884,-0.21119633
5945.3125,0.00321182,-0.17268196
5949.21875,0.02065970,-0.12323847
5953.125,0.02489104,-0.07725772
5957.03125,0.01701645,-0.04122752
5960.9375,0.01930731,-0.01119422
5964.84375,0.03439891,0.01548485
5968.75,0.03610149,0.03364239
5972.65625,0.04232749,0.03788538
5976.5625,0.01762358,0.03072967
5980.46875,0.02967749,0.01848299
5984.375,0.04124427,0.00362335
5988.28125,0.01988170,-0.01288588
5992.1875,0.02771123,-0.02596989
5996.09375,0.01394175,-0.03030436
6000.0,0.03047856,-0.02853517
6003.90625,0.03001927,-0.03126472
6007.8125,0.00223560,-0.05016552
6011.71875,0.03162571,-0.09252737
6015.625,0.00696992,-0.15667731
6019.53125,-0.01315193,-0.22934757
6023.4375,-0.00938516,-0.29376814
6027.34375,-0.02769442,-0.34452972
6031.25,-0.01583679,-0.39230728
6035.15625,-0.03663380,-0.45328882
6039.0625,-0.05173399,-0.53489017
6042.96875,-0.05081356,-0.62904000
6046.875,-0.06978305,-0.71502125
6050.78125,-0.08913200,-0.77159828
6054.6875,-0.08562065,-0.79378897
6058.59375,-0.06846382,-0.79706699
6062.5,-0.08752035,-0.79978496
6066.40625,-0.07933880,-0.80308396
6070.3125,-0.08908909,-0.79013187
6074.21875,-0.07715750,-0.73924696
6078.125,-0.05693929,-0.63077140
6082.03125,-0.02235751,-0.44057104
6085.9375,-0.00182757,-0.13472052
6089.84375,0.05942952,0.31690329
6093.75,0.14787601,0.91623580
6097.65625,0.26051426,1.63089752
6101.5625,0.35185513,2.41458344
6105.46875,0.46045032,3.22773695
6109.375,0.57375348,4.03566504
6113.28125,0.67494273,4.79145002
6117.1875,0.75215799,5.42362738
6121.09375,0.82299542,5.84261799
6125.0,0.85267800,5.97165918
6128.90625,0.81347060,5.78710938
6132.8125,0.73674035,5.33093643
6136.71875,0.64532107,4.67908001
6140.625,0.58099675,3.89960361
6144.53125,0.41302720,3.04055953
6148.4375,0.33559144,2.14398742
6152.34375,0.19087021,1.25981450
6156.25,0.07351187,0.44526666
6160.15625,-0.00793308,-0.25063396
6164.0625,-0.09246166,-0.80405307
6167.96875,-0.12819454,-1.21701407
6171.875,-0.19221079,-1.50317514
6175.78125,-0.20495079,-1.67740190
6179.6875,-0.22491457,-1.75793803
6183.59375,-0.21176673,-1.76876080
6187.5,-0.20034021,-1.72925341
6191.40625,-0.21282344,-1.64264059
6195.3125,-0.19986570,-1.50587881
6199.21875,-0.14889649,-1.33374131
6203.125,-0.13126251,-1.16165924
6207.03125,-0.11443739,-1.01880062
6210.9375,-0.10835657,-0.90541756
6214.84375,-0.09414027,-0.80063617
6218.75,-0.07369736,-0.68644565
6222.65625,-0.04371291,-0.55837637
6226.5625,-0.03974748,-0.41732380
6230.46875,-0.02529914,-0.26383677
6234.375,0.00412239,-0.10673773
6238.28125,0.03129441,0.03152113
6242.1875,0.04390732,0.12843701
6246.09375,0.03118876,0.17858967
6250.0,0.04798465,0.19272229
6253.90625,0.04396058,0.18482526
6257.8125,0.04472192,0.16619463
6261.71875,0.03952681,0.14733742
6265.625,0.03159542,0.13546777
6269.53125,0.02959925,0.12594806
6273.4375,0.03434011,0.10127357
6277.34375,0.04309712,0.04750501
6281.25,0.00198583,-0.02621019
6285.15625,0.00348018,-0.09174373
6289.0625,-0.01254012,-0.13028519
6292.96875,0.00057845,-0.15254416
6296.875,0.01299098,-0.18579896
6300.78125,-0.02001079,-0.24351358
6304.6875,-0.05038986,-0.31700045
6308.59375,-0.03656689,-0.39700407
6312.5,-0.02504443,-0.48601422
6316.40625,-0.06456270,-0.57975978
6320.3125,-0.08711179,-0.65337837
6324.21875,-0.08649565,-0.68208444
6328.125,-0.05768478,-0.66828907
6332.03125,-0.08600679,-0.63777834
6335.9375,-0.04171037,-0.61212325
6339.84375,-0.08607484,-0.58890462
6343.75,-0.05346845,-0.54745489
6347.65625,-0.06070799,-0.47262996
6351.5625,-0.02653617,-0.37229431
6355.46875,-0.02391532,-0.27187669
6359.375,-0.01135860,-0.19395703
6363.28125,-0.00043023,-0.14271614
6367.1875,-0.00960599,-0.10426427
6371.09375,0.01084652,-0.05970414
6375.0,0.00719379,-0.00021980
6378.90625,0.02178599,0.06551531
6382.8125,0.03532290,0.11672099
6386.71875,0.03346203,0.13708906
6390.625,0.02518186,0.12974218
6394.53125,0.02833213,0.11557409
6398.4375,0.03061076,0.11686193
6402.34375,0.03013019,0.14168981
6406.25,0.02636796,0.17913593
6410.15625,0.05256348,0.20623557
6414.0625,0.03966746,0.20265003
6417.96875,0.02555046,0.16167656
6421.875,0.03012925,0.08947677
6425.78125,0.00983206,-0.00120375
6429.6875,-0.01263725,-0.09646043
6433.59375,-0.00301326,-0.18658894
6437.5,-0.02124628,-0.26839218
6441.40625,-0.06308330,-0.34342548
6445.3125,-0.01899777,-0.41513315
6449.21875,-0.05646195,-0.48222306
6453.125,-0.08319942,-0.53406000
6457.03125,-0.05106704,-0.55962372
6460.9375,-0.06951909,-0.55919367
6464.84375,-0.07114469,-0.54331833
6468.75,-0.05562370,-0.52516538
6472.65625,-0.06070764,-0.51384103
6476.5625,-0.06366925,-0.50912613
6480.46875,-0.05965139,-0.50186628
6484.375,-0.05430673,-0.47997764
6488.28125,-0.04949097,-0.43376395
6492.1875,-0.05489887,-0.36020479
6496.09375,-0.01474368,-0.26693857
6500.0,-0.01732827,-0.16971314
6503.90625,-0.00801689,-0.08255158
6507.8125,0.01308878,-0.01021586
6511.71875,0.00541756,0.05062417
6515.625,0.01792402,0.10385031
6519.53125,0.03929567,0.14964239
6523.4375,0.03480033,0.19117354
6527.34375,0.02901981,0.23984087
6531.25,0.03276936,0.30186200
6535.15625,0.08269854,0.36096188
6539.0625,0.03951240,0.38571012
6542.96875,0.07090949,0.35616568
6546.875,0.03027358,0.28017539
6550.78125,0.03750153,0.18669294
6554.6875,0.01965281,0.10594197
6558.59375,0.00176778,0.05033455
6562.5,0.00208258,0.00668288
6566.40625,0.02091851,-0.05197258
6570.3125,-0.02539826,-0.14099832
6574.21875,-0.03966289,-0.25137916
6578.125,-0.03315843,-0.36134869
6582.03125,-0.06076816,-0.45231187
6585.9375,-0.06759771,-0.51490694
6589.84375,-0.08338501,-0.55219138
6593.75,-0.06006669,-0.57846993
6597.65625,-0.06834736,-0.60558498
6601.5625,-0.10895839,-0.63035339
6605.46875,-0.07207026,-0.64127207
6609.375,-0.08227773,-0.63185662
6613.28125,-0.07725161,-0.60144591
6617.1875,-0.08040992,-0.55189961
6621.09375,-0.06183416,-0.49024802
6625.0,-0.04857307,-0.42696792
6628.90625,-0.05680485,-0.36649540
6632.8125,-0.03661111,-0.30416420
6636.71875,-0.02603676,-0.23360862
6640.625,-0.02405174,-0.15280092
6644.53125,-0.00961332,-0.06387687
6648.4375,0.00649636,0.02882084
6652.34375,0.02809078,0.12108171
6656.25,0.01854991,0.20944677
6660.15625,0.03440418,0.28635409
6664.0625,0.05250207,0.33739743
6667.96875,0.06117133,0.35180449
6671.875,0.02857751,0.33569437
6675.78125,0.04901458,0.30845907
6679.6875,0.04155624,0.28739277
6683.59375,0.03384876,0.27822074
6687.5,0.02594304,0.27252999
6691.40625,0.04797733,0.25024819
6695.3125,0.03070381,0.19368319
6699.21875,0.00518914,0.10435503
6703.125,-0.00125962,0.00184526
6707.03125,-0.01487347,-0.09403135
6710.9375,-0.02785965,-0.17694414
6714.84375,-0.02678953,-0.25331399
6718.75,-0.05324849,-0.33236513
6722.65625,-0.04852491,-0.41585359
6726.5625,-0.08340392,-0.49475420
6730.46875,-0.06999413,-0.55540764
6734.375,-0.07992712,-0.58939385
6738.28125,-0.08898976,-0.59841216
6742.1875,-0.07840814,-0.59105009
6746.09375,-0.08136322,-0.57482344
6750.0,-0.08438431,-0.55107361
6753.90625,-0.05977964,-0.51717216
6757.8125,-0.07116269,-0.47076887
6761.71875,-0.06405943,-0.41211674
6765.625,-0.05902840,-0.34719539
6769.53125,-0.02885571,-0.28660271
6773.4375,-0.01962841,-0.23287484
6777.34375,-0.04827215,-0.17071731
6781.25,-0.01935633,-0.08111407
6785.15625,0.00712272,0.03431785
6789.0625,0.02479728,0.15207075
6792.96875,0.02887096,0.24840474
6796.875,0.02959735,0.31412521
6800.78125,0.05509390,0.35120305
6804.6875,0.03590410,0.36510175
6808.59375,0.04624590,0.36184603
6812.5,0.04593286,0.34773952
6816.40625,0.04618986,0.33011451
6820.3125,0.03013943,0.31602919
6824.21875,0.03307546,0.30589703
6828.125,0.03800219,0.28933471
6832.03125,0.03337818,0.25185087
6835.9375,0.02153172,0.18629877
6839.84375,0.00682411,0.09701224
6843.75,-0.01332543,-0.00453303
6847.65625,-0.01369602,-0.10556254
6851.5625,-0.03322797,-0.19606043
6855.46875,-0.04200226,-0.27219132
6859.375,-0.04835403,-0.33777171
6863.28125,-0.07261924,-0.40099916
6867.1875,-0.06343463,-0.46743309
6871.09375,-0.06271267,-0.53206587
6875.0,-0.09978043,-0.57700568
6878.90625,-0.08639172,-0.58369976
6882.8125,-0.08721353,-0.55206960
6886.71875,-0.06182243,-0.50368452
6890.625,-0.07597571,-0.46377110
6894.53125,-0.06440270,-0.44133306
6898.4375,-0.05563196,-0.42292362
6902.34375,-0.06538556,-0.38154614
6906.25,-0.06219789,-0.29776227
6910.15625,-0.02221001,-0.17983527
6914.0625,-0.00926298,-0.06091101
6917.96875,-0.00302093,0.02736514
6921.875,0.00724019,0.07831790
6925.78125,-0.00086145,0.11087223
6929.6875,0.00849957,0.15087189
6933.59375,0.02558814,0.21020357
6937.5,0.04029768,0.28100720
6941.40625,0.03360522,0.34635711
6945.3125,0.03727960,0.39112979
6949.21875,0.04825623,0.40360123
6953.125,0.06103320,0.37693438
6957.03125,0.02025571,0.31583610
6960.9375,0.03179876,0.23815414
6964.84375,0.00969028,0.16530389
6968.75,-0.00332519,0.10846322
6972.65625,0.02008982,0.06056306
6976.5625,-0.02070947,-0.00017996
6980.46875,-0.02284286,-0.09933167
6984.375,-0.03672447,-0.25536862
6988.28125,-0.06916071,-0.47006753
6992.1875,-0.12015598,-0.72450614
6996.09375,-0.13548863,-0.98522192
7000.0,-0.16903082,-1.20989430
7003.90625,-0.19402610,-1.34312689
7007.8125,-0.18649434,-1.31325591
7011.71875,-0.15519108,-1.04331326
7015.625,-0.06273345,-0.47361779
7019.53125,0.04209489,0.41199052
7023.4375,0.19185497,1.56020248
7027.34375,0.37497780,2.83214211
7031.25,0.53828907,4.01641512
7035.15625,0.66146803,4.88064528
7039.0625,0.71817285,5.24440861
7042.96875,0.66923934,5.03854370
7046.875,0.57193983,4.32114744
7050.78125,0.44403601,3.24865890
7054.6875,0.25626233,2.02552629
7058.59375,0.11700657,0.85291266
7062.5,-0.04581398,-0.11610580
7066.40625,-0.11137989,-0.80641705
7070.3125,-0.17834735,-1.22300112
7074.21875,-0.19823690,-1.42247152
7078.125,-0.19640179,-1.47064912
7082.03125,-0.21513438,-1.41333246
7085.9375,-0.19012034,-1.27653551
7089.84375,-0.14704180,-1.08415544
7093.75,-0.13397358,-0.86662465
7097.65625,-0.09124046,-0.65333998
7101.5625,-0.07046380,-0.46304005
7105.46875,-0.06580435,-0.30456361
7109.375,-0.02922629,-0.18659438
7113.28125,-0.02393195,-0.12257563
7117.1875,-0.02423644,-0.12161732
7121.09375,-0.03708801,-0.17548519
7125.0,-0.04038105,-0.25637382
7128.90625,-0.05636622,-0.32818455
7132.8125,-0.07074279,-0.36598307
7136.71875,-0.05720274,-0.37176856
7140.625,-0.05050648,-0.37031475
7144.53125,-0.06781719,-0.38539624
7148.4375,-0.06214187,-0.41987723
7152.34375,-0.07884125,-0.45770177
7156.25,-0.07895470,-0.48140734
7160.15625,-0.07838389,-0.48606607
7164.0625,-0.05665987,-0.47565532
7167.96875,-0.08151752,-0.44816107
7171.875,-0.07100593,-0.39269471
7175.78125,-0.04726721,-0.30552298
7179.6875,-0.03722283,-0.20314158
7183.59375,-0.03329331,-0.11497918
7187.5,-0.00026975,-0.06203663
7191.40625,-0.02404734,-0.03869277
7195.3125,-0.01310956,-0.01494414
7199.21875,-0.01120280,0.03804850
7203.125,0.00030226,0.12181088
7207.03125,0.03295301,0.21058132
7210.9375,0.03113642,0.27671039
7214.84375,0.01982041,0.31308690
7218.75,0.04375025,0.33063632
7222.65625,0.01928149,0.34009627
7226.5625,0.05350486,0.34087208
7230.46875,0.02635016,0.32574689
7234.375,0.03863728,0.29258406
7238.28125,0.00956193,0.24840704
7242.1875,0.02247579,0.20117849
7246.09375,0.00947175,0.15043186
7250.0,0.00467750,0.08970908
7253.90625,-0.00156560,0.01835903
7257.8125,-0.02874941,-0.05388511
7261.71875,-0.03674934,-0.11831024
7265.625,-0.00865515,-0.17747001
7269.53125,-0.04743603,-0.23565887
7273.4375,-0.06770740,-0.28633103
7277.34375,-0.04225866,-0.31990677
7281.25,-0.05330232,-0.33681390
7285.15625,-0.05595281,-0.34387854
7289.0625,-0.06664053,-0.34569359
7292.96875,-0.05493767,-0.34675080
7296.875,-0.05256544,-0.35505682
7300.78125,-0.06527855,-0.37516820
7304.6875,-0.05543073,-0.39841664
7308.59375,-0.08017562,-0.40573633
7312.5,-0.05517443,-0.38360843
7316.40625,-0.05716965,-0.33606547
7320.3125,-0.05342728,-0.27903214
7324.21875,-0.02100490,-0.22364511
7328.125,-0.05075537,-0.16677648
7332.03125,-0.01431147,-0.09846732
7335.9375,-0.02627525,-0.01706581
7339.84375,0.01096215,0.06540539
7343.75,0.00602967,0.13236833
7347.65625,0.02128534,0.17590782
7351.5625,0.01227918,0.20183265
7355.46875,0.00206366,0.22200327
7359.375,0.05139356,0.24317192
7363.28125,0.02187649,0.26561928
7367.1875,0.01066255,0.28647748
7371.09375,0.03662839,0.29734415
7375.0,0.04661692,0.28713566
7378.90625,0.01831770,0.25551447
7382.8125,0.00808506,0.21482717
7386.71875,0.01668369,0.17370775
7390.625,0.01358597,0.12857182
7394.53125,0.00824025,0.07572805
7398.4375,-0.01356816,0.02329435
7402.34375,-0.01679816,-0.01569015
7406.25,-0.01760936,-0.03971148
7410.15625,-0.00528791,-0.06301300
7414.0625,-0.01955635,-0.10190148
7417.96875,-0.04707783,-0.16070956
7421.875,-0.03900094,-0.23290107
7425.78125,-0.03728465,-0.30794182
7429.6875,-0.05698914,-0.37063056
7433.59375,-0.08624032,-0.40213516
7437.5,-0.04956026,-0.39205399
7441.40625,-0.05639312,-0.34747395
7445.3125,-0.04477986,-0.28717723
7449.21875,-0.04011355,-0.22993520
7453.125,-0.03893428,-0.18764247
7457.03125,-0.03571173,-0.16485590
7460.9375,-0.01755694,-0.16076484
7464.84375,-0.03043624,-0.16762519
7468.75,-0.03732123,-0.16862495
7472.65625,-0.04083749,-0.14548637
7476.5625,-0.00086869,-0.09189434
7480.46875,-0.01832054,-0.01676705
7484.375,0.00122008,0.06430031
7488.28125,0.00841971,0.13731167
7492.1875,0.02124154,0.19274154
7496.09375,0.02504943,0.22536631
7500.0,0.01723222,0.23246269
7503.90625,0.01839557,0.21341653
7507.8125,0.03810742,0.17495224
7511.71875,-0.00863520,0.13585100
7515.625,0.01293352,0.11758201
7519.53125,0.00336113,0.12438974
7523.4375,0.00824263,0.13495548
7527.34375,0.02797548,0.11784893
7531.25,-0.00386723,0.05922240
7535.15625,-0.01748110,-0.02289146
7539.0625,-0.02473257,-0.09285038
7542.96875,-0.01226051,-0.12497551
7546.875,-0.02521771,-0.11846909
7550.78125,-0.03372472,-0.09471019
7554.6875,-0.01099144,-0.08455565
7558.59375,-0.00326103,-0.10798249
7562.5,-0.03789381,-0.15703952
7566.40625,-0.04486750,-0.20260233
7570.3125,-0.02833277,-0.22058903
7574.21875,-0.04119340,-0.20900011
7578.125,-0.02667932,-0.18411230
7582.03125,-0.02276132,-0.16597301
7585.9375,-0.02907670,-0.16308054
7589.84375,-0.03106463,-0.16672374
7593.75,-0.04117036,-0.16322666
7597.65625,-0.01532219,-0.15063319
7601.5625,-0.00911525,-0.13576101
7605.46875,-0.03679204,-0.11713894
7609.375,-0.02303556,-0.08477842
7613.28125,-0.00558305,-0.03937061
7617.1875,-0.00467956,0.00142277
7621.09375,0.01037980,0.02206275
7625.0,-0.01253363,0.02769669
7628.90625,-0.00017638,0.03862413
7632.8125,0.00526614,0.06961472
7636.71875,0.00796741,0.11768559
7640.625,0.02306910,0.16578142
7644.53125,0.02088263,0.19429433
7648.4375,0.02956039,0.19334634
7652.34375,0.01116460,0.16915847
7656.25,0.00500091,0.13660415
7660.15625,0.02046550,0.10405589
7664.0625,0.01393280,0.07059351
7667.96875,-0.00675949,0.03830223
7671.875,-0.00959205,0.01747430
7675.78125,0.00453973,0.01560170
7679.6875,0.01109342,0.02807163
7683.59375,-0.01573167,0.04186856
7687.5,0.01495169,0.04368447
7691.40625,-0.00236634,0.02530485
7695.3125,-0.01202083,-0.01409648
7699.21875,-0.00044269,-0.06790664
7703.125,-0.01630115,-0.12100829
7707.03125,-0.03681180,-0.15260626
7710.9375,-0.02683689,-0.15196519
7714.84375,-0.01205694,-0.13290569
7718.75,-0.01264415,-0.12369490
7722.65625,-0.02945852,-0.14165410
7726.5625,-0.02589670,-0.18153545
7730.46875,-0.02443149,-0.22290887
7734.375,-0.04644354,-0.24284406
7738.28125,-0.03116351,-0.22887973
7742.1875,-0.02860409,-0.18888846
7746.09375,-0.00935470,-0.14643319
7750.0,-0.03303370,-0.12173438
7753.90625,-0.00556500,-0.11590850
7757.8125,-0.01510393,-0.11123800
7761.71875,-0.01261987,-0.08646894
7765.625,-0.03056883,-0.03897788
7769.53125,0.01355258,0.00555177
7773.4375,0.02480003,0.01479757
7777.34375,-0.01974550,-0.01506133
7781.25,-0.00434020,-0.05386331
7785.15625,-0.02489331,-0.06773618
7789.0625,0.00395566,-0.04704894
7792.96875,0.00559549,-0.00643506
7796.875,0.00558952,0.03077951
7800.78125,-0.01687768,0.04135838
7804.6875,0.02117299,0.00470698
7808.59375,-0.00057916,-0.08554404
7812.5,-0.04376398,-0.21005999
7816.40625,-0.04831906,-0.33772531
7820.3125,-0.06078896,-0.45517617
7824.21875,-0.07824440,-0.57381260
7828.125,-0.07499966,-0.70273799
7832.03125,-0.12149043,-0.81513572
7835.9375,-0.11404718,-0.84157157
7839.84375,-0.08945140,-0.69634980
7843.75,-0.04075771,-0.31427836
7847.65625,0.04088994,0.32275823
7851.5625,0.15389669,1.17233574
7855.46875,0.29913059,2.13172126
7859.375,0.42315289,3.05699515
7863.28125,0.52153707,3.79811764
7867.1875,0.56876194,4.23428917
7871.09375,0.59070790,4.29572725
7875.0,0.54822445,3.97222757
7878.90625,0.46461186,3.31506658
7882.8125,0.32491052,2.42956376
7886.71875,0.19064865,1.44972658
7890.625,0.07421057,0.50039744
7894.53125,-0.03433037,-0.33077303
7898.4375,-0.13895567,-0.99621242
7902.34375,-0.17622791,-1.47344804
7906.25,-0.26124135,-1.75298715
7910.15625,-0.23726846,-1.84283435
7914.0625,-0.23878345,-1.77848601
7917.96875,-0.20532435,-1.61570954
7921.875,-0.19219615,-1.40775490
7925.78125,-0.15943392,-1.18999779
7929.6875,-0.12654340,-0.98121297
7933.59375,-0.10623042,-0.79063797
7937.5,-0.06999313,-0.62128794
7941.40625,-0.05958783,-0.47109035
7945.3125,-0.04946309,-0.33748913
7949.21875,-0.02650589,-0.22425281
7953.125,-0.00394068,-0.14053743
7957.03125,-0.00313935,-0.08925915
7960.9375,0.00013061,-0.05841689
7964.84375,-0.00807370,-0.02807957
7968.75,0.00384572,0.01272422
7972.65625,0.02329766,0.05621787
7976.5625,0.01982282,0.08277462
7980.46875,0.02284773,0.07808442
7984.375,0.00594138,0.04591514
7988.28125,0.00549244,0.00650115
7992.1875,0.01358306,-0.01827770
7996.09375,-0.01241616,-0.02173736
8000.0,0.03450887,-0.01695447
8003.90625,-0.01935999,-0.02580560
8007.8125,-0.00318264,-0.06626063
8011.71875,0.00611710,-0.14605264
8015.625,-0.02555961,-0.25496146
8019.53125,-0.05114937,-0.36018214
8023.4375,-0.04091933,-0.41970047
8027.34375,-0.05120145,-0.40779072
8031.25,-0.05312437,-0.33396780
8035.15625,-0.00221026,-0.24218430
8039.0625,-0.01301770,-0.18396610
8042.96875,-0.01294368,-0.18152139
8046.875,-0.03286810,-0.21482387
8050.78125,-0.01789520,-0.24253298
8054.6875,-0.02099100,-0.23278292
8058.59375,-0.01465040,-0.18110970
8062.5,-0.00998982,-0.11031879
8066.40625,0.01130206,-0.05354117
8070.3125,0.00713239,-0.02869845
8074.21875,0.01029405,-0.02476486
8078.125,0.01059688,-0.01395630
8082.03125,-0.00225319,0.02124937
8085.9375,0.02780927,0.07174791
8089.84375,0.02721401,0.11164667
8093.75,0.05204849,0.12523189
8097.65625,0.00905247,0.12244839
8101.5625,0.02123085,0.12448867
8105.46875,0.03496692,0.13781615
8109.375,0.03965244,0.15013878
8113.28125,0.03947730,0.15043065
8117.1875,0.03014356,0.14354363
8121.09375,0.02094913,0.14032081
8125.0,0.02576748,0.13630006
8128.90625,0.04266988,0.10812493
8132.8125,0.02706325,0.03767454
8136.71875,-0.00565561,-0.06279843
8140.625,-0.00231039,-0.15560287
8144.53125,-0.02300351,-0.20745650
8148.4375,-0.02170688,-0.21456149
8152.34375,-0.00156526,-0.20273742
8156.25,-0.00146803,-0.20397791
8160.15625,-0.03039295,-0.23129091
8164.0625,-0.01689143,-0.27527145
8167.96875,-0.04331334,-0.31964040
8171.875,-0.01758075,-0.35404333
8175.78125,-0.03566664,-0.37345895
8179.6875,-0.03256862,-0.37223759
8183.59375,-0.03883451,-0.34487721
8187.5,-0.03334263,-0.29446611
8191.40625,0.00076860,-0.23691507
8195.3125,-0.01273647,-0.19199479
8199.21875,-0.00455807,-0.16901217
8203.125,-0.01060206,-0.16135864
8207.03125,-0.00360143,-0.15236853
8210.9375,0.00267997,-0.12553723
8214.84375,0.00264618,-0.07311313
8218.75,0.02945505,0.00096076
8222.65625,0.01453550,0.08406044
8226.5625,0.04151869,0.15954511
8230.46875,0.05646647,0.21267495
8234.375,0.05291562,0.23866673
8238.28125,0.03299488,0.24360237
8242.1875,0.06834346,0.23427042
8246.09375,0.03840122,0.21203908
8250.0,0.04565373,0.17858441
8253.90625,0.04060299,0.14116259
8257.8125,0.03279994,0.10882041
8261.71875,0.02712291,0.08448893
8265.625,0.02914724,0.06202140
8269.53125,0.02844283,0.03334686
8273.4375,0.02406942,-0.00168925
8277.34375,-0.00296105,-0.03740503
8281.25,0.02637463,-0.07368853
8285.15625,0.00293646,-0.11690146
8289.0625,-0.00588136,-0.16839124
8292.96875,-0.01285902,-0.22141412
8296.875,-0.01093742,-0.27096874
8300.78125,-0.02003120,-0.31814858
8304.6875,-0.02724840,-0.36289161
8308.59375,-0.04387908,-0.39961496
8312.5,-0.02721402,-0.42291018
8316.40625,-0.03631356,-0.43210906
8320.3125,-0.03538821,-0.42723531
8324.21875,-0.03695972,-0.40486929
8328.125,-0.02445645,-0.36128885
8332.03125,-0.01868206,-0.29843277
8335.9375,-0.01398145,-0.22671489
8339.84375,0.00956076,-0.16234048
8343.75,0.00748009,-0.11822908
8347.65625,0.00641736,-0.09371514
8351.5625,0.01970430,-0.07342958
8355.46875,0.00212288,-0.03899423
8359.375,0.04134452,0.01593874
8363.28125,0.03281821,0.08177987
8367.1875,0.03599636,0.14270717
8371.09375,0.05887958,0.18767473
8375.0,0.04341115,0.21367420
8378.90625,0.06801270,0.22396533
8382.8125,0.05342652,0.22623993
8386.71875,0.04467908,0.22909459
8390.625,0.05836543,0.23424532
8394.53125,0.06824000,0.23279443
8398.4375,0.04686151,0.21387616
8402.34375,0.05613799,0.17680904
8406.25,0.04060245,0.13295205
8410.15625,0.03425399,0.09524683
8414.0625,0.03757861,0.06355375
8417.96875,0.01716759,0.01898908
8421.875,0.04184386,-0.06269950
8425.78125,-0.00542783,-0.18624607
8429.6875,-0.02118405,-0.32590753
8433.59375,-0.04258903,-0.44356242
8437.5,-0.04069029,-0.51708990
8441.40625,-0.03237887,-0.54927880
8445.3125,-0.05835015,-0.55557340
8449.21875,-0.05739291,-0.55225700
8453.125,-0.03571219,-0.55275434
8457.03125,-0.04440018,-0.56149226
8460.9375,-0.05075314,-0.56766266
8464.84375,-0.05677499,-0.55319142
8468.75,-0.04058385,-0.50983125
8472.65625,-0.02671885,-0.44483644
8476.5625,-0.02003919,-0.37077203
8480.46875,-0.01057872,-0.29410401
8484.375,-0.00229978,-0.21355630
8488.28125,0.00619993,-0.12659073
8492.1875,0.02556477,-0.03669212
8496.09375,0.04284887,0.04675157
8500.0,0.04853909,0.11760347
8503.90625,0.04242027,0.17939988
8507.8125,0.06702673,0.23847559
8511.71875,0.06895346,0.29232499
8515.625,0.07357059,0.32841012
8519.53125,0.07865150,0.33474487
8523.4375,0.07972198,0.31202021
8527.34375,0.05794853,0.27615738
8531.25,0.06899924,0.24753073
8535.15625,0.06035923,0.23511805
8539.0625,0.04655493,0.22764502
8542.96875,0.08828665,0.19998492
8546.875,0.04038162,0.13444407
8550.78125,0.02511808,0.03791068
8554.6875,0.03122349,-0.06452054
8558.59375,0.01145538,-0.14979382
8562.5,-0.00208787,-0.21064220
8566.40625,-0.00267939,-0.25737953
8570.3125,-0.00692126,-0.30849439
8574.21875,-0.01860379,-0.37456861
8578.125,-0.02134218,-0.44871712
8582.03125,-0.04689771,-0.51282364
8585.9375,-0.05227922,-0.55360204
8589.84375,-0.02634314,-0.57200950
8593.75,-0.05696888,-0.57663357
8597.65625,-0.03598629,-0.57137835
8601.5625,-0.04464262,-0.55275786
8605.46875,-0.05155307,-0.51827568
8609.375,-0.02094625,-0.47446036
8613.28125,-0.01035538,-0.43134475
8617.1875,-0.03933729,-0.38865072
8621.09375,-0.01137395,-0.33544239
8625.0,0.01070219,-0.26400355
8628.90625,-0.00433681,-0.17688639
8632.8125,0.03709130,-0.08241885
8636.71875,0.01503811,0.01007558
8640.625,0.06858554,0.09248187
8644.53125,0.04657962,0.16106720
8648.4375,0.06837437,0.21786843
8652.34375,0.05538220,0.26534355
8656.25,0.09253647,0.29978013
8660.15625,0.07287575,0.31279901
8664.0625,0.06757066,0.29781696
8667.96875,0.07849225,0.25483459
8671.875,0.06981996,0.19470710
8675.78125,0.03255850,0.13704872
8679.6875,0.05312007,0.09436683
8683.59375,0.05450035,0.05981805
8687.5,0.03059938,0.01759749
8691.40625,0.03327687,-0.03970025
8695.3125,0.01571498,-0.10959832
8699.21875,0.01574871,-0.18961804
8703.125,-0.01408350,-0.28348896
8707.03125,-0.00414049,-0.39908272
8710.9375,-0.04610632,-0.54111630
8714.84375,-0.05747465,-0.70478970
8718.75,-0.08158126,-0.87552762
8722.65625,-0.11030383,-1.03433824
8726.5625,-0.11750112,-1.16440868
8730.46875,-0.14006834,-1.25272155
8734.375,-0.13013804,-1.28219998
8738.28125,-0.13493636,-1.21921623
8742.1875,-0.09423465,-1.00812006
8746.09375,-0.03621536,-0.58010799
8750.0,0.04148586,0.12219727
8753.90625,0.17474116,1.10905600
8757.8125,0.36942035,2.31650543
8761.71875,0.52383053,3.61040258
8765.625,0.68349963,4.81778240
8769.53125,0.83768237,5.76521492
8773.4375,0.89008451,6.31366920
8777.34375,0.89328456,6.38306093
8781.25,0.86853272,5.96352196
8785.15625,0.73694658,5.12131643
8789.0625,0.56832731,3.99405313
8792.96875,0.41064611,2.75805712
8796.875,0.25932440,1.57873940
8800.78125,0.10631473,0.57415938
8804.6875,0.01095624,-0.19844221
8808.59375,-0.05933380,-0.73872095
8812.5,-0.11097615,-1.08451879
8816.40625,-0.13042262,-1.28634906
8820.3125,-0.17223397,-1.38923168
8824.21875,-0.12556688,-1.42484546
8828.125,-0.17139818,-1.40763068
8832.03125,-0.14275648,-1.33825541
8835.9375,-0.13503751,-1.21933293
8839.84375,-0.09977780,-1.06996524
8843.75,-0.09224166,-0.92361379
8847.65625,-0.06851343,-0.81278223
8851.5625,-0.06470409,-0.75286931
8855.46875,-0.06073851,-0.73451996
8859.375,-0.06597050,-0.73026264
8863.28125,-0.05624661,-0.71264040
8867.1875,-0.06072903,-0.67081344
8871.09375,-0.03948543,-0.61360157
8875.0,-0.03941834,-0.55830413
8878.90625,-0.02607094,-0.51545769
8882.8125,-0.03275606,-0.48226169
8886.71875,-0.02841094,-0.44873214
8890.625,-0.00988684,-0.40716892
8894.53125,-0.01251569,-0.35369101
8898.4375,0.00125671,-0.28430554
8902.34375,0.00460935,-0.19554809
8906.25,0.03365807,-0.08935818
8910.15625,0.04130665,0.02524432
8914.0625,0.04105580,0.13341506
8917.96875,0.08350597,0.21690312
8921.875,0.07439187,0.26272079
8925.78125,0.07177770,0.27383867
8929.6875,0.06887314,0.26670924
8933.59375,0.07313046,0.25715396
8937.5,0.08314938,0.25293845
8941.40625,0.06417760,0.25679621
8945.3125,0.07072271,0.26680362
8949.21875,0.07977489,0.27268854
8953.125,0.08135192,0.25971106
8957.03125,0.04874840,0.21771841
8960.9375,0.06802478,0.14371222
8964.84375,0.05340262,0.04254728
8968.75,0.01987370,-0.06883699
8972.65625,0.00376575,-0.16646339
8976.5625,0.01707079,-0.23525202
8980.46875,0.00673598,-0.27552840
8984.375,-0.01434394,-0.29673675
8988.28125,-0.01160434,-0.31491029
8992.1875,0.00963981,-0.35183975
8996.09375,-0.03540627,-0.42277086
9000.0,-0.02259384,-0.52172166
9003.90625,-0.04867283,-0.62105542
9007.8125,-0.06039852,-0.68479484
9011.71875,-0.05482618,-0.68732512
9015.625,-0.05849192,-0.62878293
9019.53125,-0.02159155,-0.53562427
9023.4375,-0.02462693,-0.44258451
9027.34375,-0.01402442,-0.37005806
9031.25,-0.00295632,-0.31611460
9035.15625,-0.00824348,-0.26686120
9039.0625,0.01244485,-0.21236567
9042.96875,0.01645087,-0.15320899
9046.875,0.02867630,-0.09375297
9050.78125,0.03044363,-0.03291706
9054.6875,0.03433519,0.03524222
9058.59375,0.06211300,0.11349545
9062.5,0.05968844,0.19669001
9066.40625,0.06654356,0.27248079
9070.3125,0.09100473,0.32516056
9074.21875,0.08331836,0.34479505
9078.125,0.08136053,0.33675033
9082.03125,0.07726094,0.31840974
9085.9375,0.07507478,0.30363134
9089.84375,0.08331965,0.29120886
9093.75,0.05970256,0.26672682
9097.65625,0.07620607,0.21365486
9101.5625,0.06339775,0.12670526
9105.46875,0.02055132,0.01766558
9109.375,0.02111561,-0.09432982
9113.28125,0.02577296,-0.19590192
9117.1875,-0.00541841,-0.27951089
9121.09375,-0.02575264,-0.34114003
9125.0,-0.01196381,-0.38712433
9128.90625,-0.00654957,-0.43328059
9132.8125,-0.05006326,-0.48826343
9136.71875,-0.02253964,-0.54351169
9140.625,-0.05493992,-0.58257908
9144.53125,-0.05090372,-0.59648186
9148.4375,-0.03493555,-0.58967257
9152.34375,-0.04224340,-0.57220918
9156.25,-0.04060014,-0.54714280
9160.15625,-0.03318502,-0.50862527
9164.0625,-0.04387293,-0.45291224
9167.96875,0.00429523,-0.38637623
9171.875,-0.00940161,-0.31773591
9175.78125,-0.00698492,-0.24666138
9179.6875,0.00208303,-0.16939145
9183.59375,0.03277382,-0.09254344
9187.5,0.03968686,-0.02925830
9191.40625,0.02414392,0.01866953
9195.3125,0.04785716,0.06539035
9199.21875,0.04352545,0.12604922
9203.125,0.07168236,0.20161977
9207.03125,0.06337207,0.27749068
9210.9375,0.08115495,0.33271444
9214.84375,0.08263198,0.35196841
9218.75,0.08715228,0.33482367
9222.65625,0.06664404,0.29598129
9226.5625,0.06126434,0.25280446
9230.46875,0.06315217,0.21037275
9234.375,0.06552508,0.16098398
9238.28125,0.04132570,0.09768321
9242.1875,0.03138588,0.02391097
9246.09375,0.03925081,-0.04955580
9250.0,-0.00426463,-0.11362679
9253.90625,0.02581184,-0.16813836
9257.8125,-0.00277147,-0.22126128
9261.71875,-0.00583172,-0.27972957
9265.625,-0.00432008,-0.33976886
9269.53125,-0.03430205,-0.38944420
9273.4375,-0.02627752,-0.42065468
9277.34375,-0.01854771,-0.43680978
9281.25,-0.03126122,-0.44625673
9285.15625,-0.02613453,-0.45181441
9289.0625,-0.04226563,-0.45168984
9292.96875,-0.02223339,-0.44664955
9296.875,-0.02433783,-0.43830770
9300.78125,-0.02597384,-0.42075267
9304.6875,-0.02998414,-0.38150087
9308.59375,-0.00112708,-0.31328019
9312.5,-0.01061828,-0.22198713
9316.40625,0.01502926,-0.12431736
9320.3125,0.03775401,-0.03920139
9324.21875,0.02468809,0.02252288
9328.125,0.04188180,0.06269334
9332.03125,0.03187225,0.08994906
9335.9375,0.06133759,0.11140573
9339.84375,0.03255118,0.13065723
9343.75,0.06206584,0.15032750
9347.65625,0.05074520,0.17440173
9351.5625,0.05431850,0.20668566
9355.46875,0.05432630,0.24375108
9359.375,0.08383179,0.27084300
9363.28125,0.05026263,0.27018869
9367.1875,0.07376906,0.23426963
9371.09375,0.04944023,0.17064641
9375.0,0.03468345,0.09532844
9378.90625,0.03288497,0.01939668
9382.8125,0.01963938,-0.06161247
9386.71875,0.00498206,-0.16600786
9390.625,-0.00103029,-0.31227446
9394.53125,-0.05900948,-0.50504178
9398.4375,-0.06570776,-0.73274332
9402.34375,-0.10398607,-0.97406310
9406.25,-0.13201191,-1.19928908
9410.15625,-0.17002933,-1.36240840
9414.0625,-0.14317271,-1.39064515
9417.96875,-0.13052049,-1.18237054
9421.875,-0.07063522,-0.63250303
9425.78125,0.06217095,0.30718267
9429.6875,0.23467647,1.56546295
9433.59375,0.41943035,2.93534756
9437.5,0.60086840,4.12155104
9441.40625,0.67446804,4.83297157
9445.3125,0.72319812,4.88563538
9449.21875,0.59934026,4.27438736
9453.125,0.44984153,3.17319894
9457.03125,0.27210271,1.85892034
9460.9375,0.11573600,0.60576594
9464.84375,-0.04821331,-0.39423341
9468.75,-0.11364029,-1.06427550
9472.65625,-0.15785323,-1.42976332
9476.5625,-0.19592044,-1.57064855
9480.46875,-0.18912943,-1.56911242
9484.375,-0.15983358,-1.47947168
9488.28125,-0.16974472,-1.32571983
9492.1875,-0.13632543,-1.12066007
9496.09375,-0.09363598,-0.88819134
9500.0,-0.05968435,-0.66369426
9503.90625,-0.03563062,-0.47350922
9507.8125,-0.02429311,-0.32134569
9511.71875,-0.00754365,-0.19705671
9515.625,0.00366903,-0.09597252
9519.53125,0.01885598,-0.02877183
9523.4375,0.04394688,-0.01088844
9527.34375,0.01168727,-0.04055784
9531.25,-0.01235995,-0.09261891
9535.15625,0.02139420,-0.13886075
9539.0625,-0.00930307,-0.17026056
9542.96875,0.00002586,-0.19776298
9546.875,-0.00868194,-0.23648059
9550.78125,-0.01862280,-0.28916577
9554.6875,-0.01885902,-0.34173450
9558.59375,-0.04791550,-0.37519789
9562.5,-0.01014421,-0.38198417
9566.40625,-0.05235081,-0.36955327
9570.3125,-0.00292605,-0.34905714
9574.21875,-0.01962368,-0.32086879
9578.125,-0.03847943,-0.27313438
9582.03125,-0.00651277,-0.19963273
9585.9375,0.01552768,-0.11602418
9589.84375,0.02007168,-0.04934659
9593.75,0.01165619,-0.01238758
9597.65625,0.01795413,0.00549918
9601.5625,0.01971655,0.02362463
9605.46875,0.03265544,0.04985168
9609.375,0.02396997,0.07477627
9613.28125,0.03972993,0.08466378
9617.1875,0.02034610,0.07984784
9621.09375,0.04308415,0.07915924
9625.0,0.02396523,0.10414346
9628.90625,0.02749229,0.15630282
9632.8125,0.05868540,0.20892365
9636.71875,0.04421832,0.22490740
9640.625,0.06392093,0.18814912
9644.53125,0.02525927,0.12031717
9648.4375,0.01187387,0.06407076
9652.34375,0.01814458,0.04386891
9656.25,0.03797759,0.04369166
9660.15625,0.03104439,0.02786254
9664.0625,0.00007515,-0.01977829
9667.96875,0.00573131,-0.08250590
9671.875,0.00922513,-0.12864147
9675.78125,-0.00256282,-0.13527796
9679.6875,-0.02758450,-0.10539290
9683.59375,0.02669734,-0.07337631
9687.5,0.01718651,-0.08327205
9691.40625,-0.00128874,-0.14693721
9695.3125,-0.02622869,-0.22660819
9699.21875,-0.03668420,-0.26698720
9703.125,-0.00613470,-0.24474473
9707.03125,-0.00863182,-0.18571095
9710.9375,-0.00100989,-0.13762867
9714.84375,0.00241846,-0.12898527
9718.75,-0.01480025,-0.15152279
9722.65625,-0.01279844,-0.17723857
9726.5625,-0.00410232,-0.18550931
9730.46875,-0.00606487,-0.17034858
9734.375,-0.01371749,-0.13139677
9738.28125,0.00438887,-0.07219351
9742.1875,0.02394834,-0.00555042
9746.09375,0.01250342,0.05043744
9750.0,0.01914672,0.08336740
9753.90625,0.04183523,0.09201806
9757.8125,0.01356556,0.08530674
9761.71875,0.02325174,0.07668894
9765.625,0.02204163,0.07535482
9769.53125,0.02579732,0.08184755
9773.4375,0.03152643,0.09229377
9777.34375,0.01454782,0.10401160
9781.25,0.02499491,0.11588195
9785.15625,0.05369780,0.12788963
9789.0625,0.01135530,0.14230615
9792.96875,0.02630367,0.15800795
9796.875,0.03795533,0.16207664
9800.78125,0.04363771,0.13867489
9804.6875,0.02552985,0.09047727
9808.59375,0.00005500,0.04102895
9812.5,0.00574174,0.01072071
9816.40625,0.02253301,-0.00200766
9820.3125,0.01918794,-0.01143642
9824.21875,-0.00639253,-0.02603455
9828.125,-0.00275354,-0.04689552
9832.03125,0.01289875,-0.07601298
9835.9375,-0.01930004,-0.11481629
9839.84375,0.01038501,-0.15618853
9843.75,-0.03274861,-0.18486820
9847.65625,-0.02419611,-0.18946095
9851.5625,-0.00413781,-0.17374197
9855.46875,-0.00539969,-0.15208900
9859.375,-0.02437017,-0.13373923
9863.28125,0.01207323,-0.11525911
9867.1875,-0.01953880,-0.08774641
9871.09375,-0.00354928,-0.05101888
9875.0,0.01632098,-0.02111921
9878.90625,0.00171216,-0.01844730
9882.8125,0.01191519,-0.04572066
9886.71875,-0.01509730,-0.08213930
9890.625,-0.00531604,-0.10112591
9894.53125,-0.01229606,-0.09120114
9898.4375,0.00875867,-0.05937007
9902.34375,0.00734393,-0.01886045
9906.25,0.00099713,0.02128003
9910.15625,0.01972625,0.05595468
9914.0625,0.00765554,0.08104329
9917.96875,0.03014365,0.09529376
9921.875,0.02185541,0.10325900
9925.78125,0.01030903,0.11215166
9929.6875,0.02662485,0.12381612
9933.59375,0.02003673,0.13209523
9937.5,0.03668996,0.13016865
9941.40625,0.00420699,0.11751172
9945.3125,0.02901404,0.09774240
9949.21875,0.01298750,0.07389179
9953.125,0.00290790,0.04853462
9957.03125,0.02338564,0.02613209
9960.9375,-0.00326640,0.01324666
9964.84375,0.00386394,0.01372658
9968.75,0.00692540,0.02061723
9972.65625,0.01161806,0.01638971
9976.5625,0.00166674,-0.01360227
9980.46875,-0.01380346,-0.06831990
9984.375,-0.00041159,-0.13117319
9988.28125,-0.02763924,-0.17968634
9992.1875,-0.03062311,-0.19839141
9996.09375,-0.02586093,-0.18949282
10000.0,-0.00691457,-0.17081706
10003.90625,-0.02613170,-0.15974022
10007.8125,-0.01322728,-0.15904012
10011.71875,-0.01973009,-0.15680125
10015.625,-0.02462856,-0.13838013
10019.53125,-0.01939834,-0.10307271
10023.4375,0.00535619,-0.07119161
10027.34375,-0.00322180,-0.06788959
10031.25,-0.01411302,-0.09557876
10035.15625,-0.01406088,-0.12592855
10039.0625,-0.03533670,-0.12305544
10042.96875,0.00823546,-0.07484923
10046.875,-0.00195245,-0.00125300
10050.78125,0.00783056,0.06429640
10054.6875,0.01938517,0.09744006
10058.59375,-0.00040775,0.09257020
10062.5,0.02941148,0.06193471
10066.40625,-0.00976778,0.03021143
10070.3125,0.00716463,0.02370483
10074.21875,0.00458027,0.05520815
10078.125,0.00760708,0.11454371
10082.03125,0.03452202,0.17376330
10085.9375,0.02747319,0.20481868
10089.84375,0.02908703,0.19685087
10093.75,0.01056458,0.15954307
10097.65625,0.02206208,0.11227329
10101.5625,-0.00456228,0.07057546
10105.46875,0.02158603,0.03956508
10109.375,-0.00781562,0.01653195
10113.28125,-0.00075562,-0.00236587
10117.1875,-0.01029321,-0.01863844
10121.09375,0.00474321,-0.03226676
10125.0,-0.01841055,-0.04382052
10128.90625,-0.00301690,-0.05590031
10132.8125,-0.00658916,-0.07143410
10136.71875,-0.03582619,-0.09132254
10140.625,-0.00407835,-0.11657602
10144.53125,-0.01652482,-0.14866339
10148.4375,-0.03459330,-0.18313496
10152.34375,-0.03591470,-0.20889138
10156.25,-0.03283091,-0.21864130
10160.15625,-0.02829063,-0.21568152
10164.0625,-0.02953074,-0.20849246
10167.96875,-0.04053749,-0.20292573
10171.875,-0.02051505,-0.19958583
10175.78125,-0.03297427,-0.19260584
10179.6875,-0.02721739,-0.17002620
10183.59375,-0.02981821,-0.12295331
10187.5,-0.00641179,-0.05859931
10191.40625,-0.00223351,0.00057543
10195.3125,0.00745149,0.03577598
10199.21875,-0.01097092,0.04816265
10203.125,0.00266915,0.05341463
10207.03125,0.01456670,0.06413073
10210.9375,-0.00073700,0.08203640
10214.84375,0.00123785,0.10291694
10218.75,0.02509153,0.12409072
10222.65625,0.01029231,0.14897984
10226.5625,0.02045202,0.18403766
10230.46875,0.01360282,0.22754627
10234.375,0.04055766,0.26419288
10238.28125,0.03216255,0.27612883
10242.1875,0.02529562,0.25871098
10246.09375,0.03104679,0.22390732
10250.0,0.01680110,0.19109023
10253.90625,0.00451219,0.17355080
10257.8125,0.03213779,0.16777319
10261.71875,-0.00681832,0.15384503
10265.625,0.03740282,0.11015934
10269.53125,-0.01888295,0.03211461
10273.4375,-0.00842172,-0.06257048
10277.34375,-0.04477703,-0.14828710
10281.25,-0.02394361,-0.20989855
10285.15625,-0.03813063,-0.24584845
10289.0625,-0.04392490,-0.25928575
10292.96875,-0.04454699,-0.25413555
10296.875,-0.04924274,-0.24009989
10300.78125,-0.03877915,-0.23457180
10304.6875,-0.02366730,-0.25173250
10308.59375,-0.05259754,-0.28682983
10312.5,-0.06540167,-0.31601107
10316.40625,-0.04951071,-0.31553042
10320.3125,-0.03814324,-0.27809116
10324.21875,-0.04243938,-0.21164833
10328.125,-0.02095003,-0.13085099
10332.03125,-0.02619706,-0.05150941
10335.9375,0.00036336,0.01392409
10339.84375,-0.00298456,0.06130817
10343.75,0.00716171,0.09598292
10347.65625,0.00287254,0.12774247
10351.5625,0.01544264,0.16329667
10355.46875,0.01051349,0.20206712
10359.375,0.03210122,0.23847251
10363.28125,0.02754049,0.26868379
10367.1875,0.01789139,0.29383701
10371.09375,0.04649884,0.31542370
10375.0,0.02602643,0.33061731
10378.90625,0.03748917,0.33373576
10382.8125,0.02748209,0.31940660
10386.71875,0.03982044,0.28452647
10390.625,0.01441737,0.23048870
10394.53125,0.00931763,0.16415095
10398.4375,0.00822403,0.09607366
10402.34375,-0.01550000,0.03619142
10406.25,-0.01068022,-0.01314961
10410.15625,-0.01157670,-0.05987566
10414.0625,-0.03012959,-0.11241782
10417.96875,-0.03548127,-0.16735868
10421.875,-0.04462017,-0.21208215
10425.78125,-0.03954168,-0.23940301
10429.6875,-0.04701509,-0.25476304
10433.59375,-0.04425805,-0.26861259
10437.5,-0.06314721,-0.28669938
10441.40625,-0.04367869,-0.30959716
10445.3125,-0.06218049,-0.33541346
10449.21875,-0.05242188,-0.35684806
10453.125,-0.06613117,-0.35907978
10457.03125,-0.06930180,-0.32950506
10460.9375,-0.03690382,-0.27258134
10464.84375,-0.05201894,-0.20996250
10468.75,-0.01458517,-0.16157000
10472.65625,-0.04034097,-0.12741847
10476.5625,-0.03047335,-0.09043340
10480.46875,-0.02262326,-0.03603477
10484.375,0.00487003,0.03546365
10488.28125,-0.00100770,0.11456646
10492.1875,0.00741170,0.19204259
10496.09375,0.03158433,0.26076570
10500.0,0.01569770,0.31476331
10503.90625,0.03626326,0.34923503
10507.8125,0.05556616,0.36244249
10511.71875,0.02374991,0.35937583
10515.625,0.01232485,0.34766245
10519.53125,0.04914785,0.32610774
10523.4375,0.03617429,0.28659424
10527.34375,0.00181404,0.23026055
10531.25,0.01851438,0.17157179
10535.15625,-0.01610313,0.12330365
10539.0625,0.00955614,0.08344004
10542.96875,0.00287290,0.03932402
10546.875,-0.03515903,-0.01866121
10550.78125,-0.02001016,-0.09216248
10554.6875,-0.04210078,-0.18157488
10558.59375,-0.05137216,-0.29088286
10562.5,-0.06868846,-0.42452878
10566.40625,-0.10548798,-0.58302951
10570.3125,-0.11327806,-0.76261890
10574.21875,-0.14417507,-0.95412064
10578.125,-0.15972169,-1.13468468
10582.03125,-0.19352700,-1.26095903
10585.9375,-0.21226814,-1.27907228
10589.84375,-0.13544168,-1.14304137
10593.75,-0.13396069,-0.81784987
10597.65625,-0.05797015,-0.27509639
10601.5625,0.03227269,0.48941764
10605.46875,0.20210578,1.42494535
10609.375,0.30591941,2.41895366
10613.28125,0.42669928,3.32060647
10617.1875,0.52834642,3.97526598
10621.09375,0.57837886,4.26353741
10625.0,0.55419350,4.13909721
10628.90625,0.45540628,3.64107108
10632.8125,0.38408655,2.87070394
10636.71875,0.25914741,1.95760143
10640.625,0.12173502,1.03609979
10644.53125,0.00285935,0.22153030
10648.4375,-0.07876872,-0.41731718
10652.34375,-0.11291797,-0.86683637
10656.25,-0.18655732,-1.14872026
10660.15625,-0.18620755,-1.29372323
10664.0625,-0.19424029,-1.32800210
10667.96875,-0.19372791,-1.27148378
10671.875,-0.17535284,-1.14662206
10675.78125,-0.16019176,-0.99109530
10679.6875,-0.11574333,-0.85308039
10683.59375,-0.11403057,-0.76194167
10687.5,-0.12251808,-0.70607990
10691.40625,-0.11353140,-0.65074402
10695.3125,-0.09569664,-0.57792807
10699.21875,-0.07368264,-0.50147867
10703.125,-0.08195207,-0.44653592
10707.03125,-0.07495896,-0.42458719
10710.9375,-0.06812549,-0.42726779
10714.84375,-0.08633794,-0.43440288
10718.75,-0.07057372,-0.42670688
10722.65625,-0.07455317,-0.39730912
10726.5625,-0.06057781,-0.35444984
10730.46875,-0.06638254,-0.31249186
10734.375,-0.04054675,-0.27854282
10738.28125,-0.05912995,-0.24640900
10742.1875,-0.04636710,-0.20511457
10746.09375,-0.04766332,-0.15438177
10750.0,-0.02131969,-0.10714040
10753.90625,-0.01399597,-0.07183216
10757.8125,-0.03347517,-0.03573670
10761.71875,-0.01853470,0.02636826
10765.625,-0.00143404,0.12591496
10769.53125,0.01319929,0.24639796
10773.4375,0.05000310,0.35545760
10777.34375,0.03466842,0.42966083
10781.25,0.03901727,0.46761030
10785.15625,0.04839852,0.48105112
10789.0625,0.04749734,0.47864544
10792.96875,0.05667968,0.46193358
10796.875,0.03739458,0.43281883
10800.78125,0.02623527,0.39624813
10804.6875,0.03323105,0.35240594
10808.59375,0.03238473,0.29339096
10812.5,0.01136302,0.21397409
10816.40625,-0.00882421,0.12146808
10820.3125,-0.00844738,0.02986834
10824.21875,-0.02575063,-0.05331512
10828.125,-0.04342851,-0.13202216
10832.03125,-0.03051738,-0.21438207
10835.9375,-0.06322089,-0.30036446
10839.84375,-0.06965709,-0.37829944
10843.75,-0.08388256,-0.43631685
10847.65625,-0.07984306,-0.47384432
10851.5625,-0.07191285,-0.49710077
10855.46875,-0.09699746,-0.50666815
10859.375,-0.07858601,-0.49585494
10863.28125,-0.08379577,-0.46081820
10867.1875,-0.08743320,-0.40884718
10871.09375,-0.04027120,-0.35495800
10875.0,-0.06281691,-0.30716136
10878.90625,-0.05181519,-0.25578994
10882.8125,-0.06551713,-0.18418570
10886.71875,-0.00430399,-0.08962328
10890.625,-0.02045324,0.01256581
10894.53125,-0.00929058,0.10229572
10898.4375,0.01324798,0.16657275
10902.34375,0.00842389,0.20510553
10906.25,0.02025351,0.23219930
10910.15625,0.01290624,0.26954582
10914.0625,0.02824420,0.33001673
10917.96875,0.03363946,0.40537429
10921.875,0.05483840,0.47049826
10925.78125,0.06404692,0.50279433
10929.6875,0.03067586,0.49838054
10933.59375,0.05368465,0.46835029
10937.5,0.04624836,0.42402500
10941.40625,0.03263267,0.37084675
10945.3125,0.02294904,0.31104955
10949.21875,0.01772955,0.24473903
10953.125,0.00174237,0.16983588
10957.03125,0.01653689,0.08620556
10960.9375,-0.03524888,0.00008959
10964.84375,-0.02797039,-0.07993556
10968.75,-0.02739839,-0.15096110
10972.65625,-0.04406558,-0.21455850
10976.5625,-0.05839758,-0.27008751
10980.46875,-0.05457325,-0.31547862
10984.375,-0.06846339,-0.35257614
10988.28125,-0.06390178,-0.38688615
10992.1875,-0.07099444,-0.42205891
10996.09375,-0.08163761,-0.45584494
11000.0,-0.07923449,-0.48053184
11003.90625,-0.07311459,-0.48538703
11007.8125,-0.09044318,-0.46060568
11011.71875,-0.07000712,-0.40473256
11015.625,-0.04905684,-0.32850245
11019.53125,-0.05362364,-0.24678002
11023.4375,-0.03645197,-0.16745757
11027.34375,-0.02722913,-0.09022102
11031.25,-0.01315642,-0.01304514
11035.15625,-0.01810781,0.06100858
11039.0625,0.00723503,0.12205919
11042.96875,0.02623114,0.16331723
11046.875,0.00243169,0.19543777
11050.78125,0.00483204,0.24148668
11054.6875,0.03525417,0.31115550
11058.59375,0.04266737,0.38704881
11062.5,0.04837699,0.44084635
11066.40625,0.05576114,0.45790806
11070.3125,0.03189857,0.44360450
11074.21875,0.04326436,0.40940905
11078.125,0.04218467,0.35880923
11082.03125,0.03294917,0.29004234
11085.9375,0.00697747,0.20721577
11089.84375,-0.00075488,0.12060246
11093.75,-0.00464997,0.03736719
11097.65625,-0.00952619,-0.04037242
11101.5625,-0.02542661,-0.10808965
11105.46875,-0.04992031,-0.15852861
11109.375,-0.03416506,-0.19415264
11113.28125,-0.04040893,-0.23340629
11117.1875,-0.04000993,-0.29617780
11121.09375,-0.07745162,-0.38411009
11125.0,-0.07901297,-0.47901911
11128.90625,-0.07453481,-0.55621338
11132.8125,-0.09828706,-0.59522820
11136.71875,-0.09377718,-0.58671457
11140.625,-0.09357891,-0.54054117
11144.53125,-0.06293780,-0.48396114
11148.4375,-0.06408547,-0.44017994
11152.34375,-0.06900983,-0.40568247
11156.25,-0.06975189,-0.35464877
11160.15625,-0.04827223,-0.26794863
11164.0625,-0.01796332,-0.15318352
11167.96875,-0.02034897,-0.03555602
11171.875,0.00319522,0.06405894
11175.78125,0.00055869,0.13912505
11179.6875,0.02899512,0.19294503
11183.59375,0.01439730,0.23155864
11187.5,0.02579780,0.26034781
11191.40625,0.03522073,0.28380492
11195.3125,0.03063700,0.30668509
11199.21875,0.03867708,0.33284578
11203.125,0.03957290,0.35996538
11207.03125,0.03232210,0.37527576
11210.9375,0.05529319,0.36038151
11214.84375,0.03860236,0.30655634
11218.75,0.01596799,0.22687648
11222.65625,0.00906947,0.14863735
11226.5625,0.01111649,0.09169088
11230.46875,-0.00998732,0.05417923
11234.375,0.00654638,0.01640825
11238.28125,-0.00817983,-0.04219955
11242.1875,-0.03454052,-0.12750520
11246.09375,-0.02861358,-0.22968575
11250.0,-0.05907824,-0.33336616
11253.90625,-0.05901461,-0.42473418
11257.8125,-0.06415647,-0.49185330
11261.71875,-0.09471830,-0.52649260
11265.625,-0.06858582,-0.53080052
11269.53125,-0.06847513,-0.51803201
11273.4375,-0.08506504,-0.50142485
11277.34375,-0.05727140,-0.48382375
11281.25,-0.06983835,-0.45849153
11285.15625,-0.07266857,-0.41742653
11289.0625,-0.03929499,-0.35860008
11292.96875,-0.04012621,-0.28537664
11296.875,-0.04599233,-0.20270699
11300.78125,-0.00971279,-0.11861670
11304.6875,-0.00020288,-0.04404626
11308.59375,-0.01534703,0.01435745
11312.5,0.00685633,0.05758097
11316.40625,0.03206959,0.09152355
11320.3125,-0.01652484,0.12505017
11324.21875,0.04258704,0.16510370
11328.125,0.02284075,0.20940082
11332.03125,0.01769914,0.24624576
11335.9375,0.05693334,0.26281688
11339.84375,0.03100863,0.25632820
11343.75,0.01652111,0.23732489
11347.65625,0.04636989,0.21835847
11351.5625,0.01466384,0.20167135
11355.46875,0.03047688,0.17942439
11359.375,0.01790101,0.14094643
11363.28125,0.01798916,0.08049694
11367.1875,0.00348121,0.00398644
11371.09375,-0.01824255,-0.07244641
11375.0,-0.01673947,-0.13603675
11378.90625,-0.02268915,-0.19064818
11382.8125,-0.02806484,-0.25244552
11386.71875,-0.03776055,-0.32979795
11390.625,-0.05663339,-0.40891802
11394.53125,-0.06377583,-0.46235240
11398.4375,-0.06210257,-0.47357744
11402.34375,-0.06723290,-0.45341280
11406.25,-0.03208156,-0.43060175
11410.15625,-0.06010479,-0.42486522
11414.0625,-0.06179115,-0.43145514
11417.96875,-0.05345549,-0.43297163
11421.875,-0.05572538,-0.42021918
11425.78125,-0.03625081,-0.39753985
11429.6875,-0.05402324,-0.37283692
11433.59375,-0.03935719,-0.34860918
11437.5,-0.04652724,-0.32236302
11441.40625,-0.02106310,-0.28993875
11445.3125,-0.02080457,-0.24435437
11449.21875,-0.03355758,-0.17621015
11453.125,-0.00820315,-0.08358190
11457.03125,0.02505286,0.01977237
11460.9375,0.02241577,0.11256470
11464.84375,0.03032122,0.18000187
11468.75,0.02375938,0.21586256
11472.65625,0.05391304,0.21892591
11476.5625,0.04124202,0.19739929
11480.46875,0.02093338,0.17171352
11484.375,0.02582352,0.16075878
11488.28125,0.04504877,0.16441052
11492.1875,0.01811019,0.16362087
11496.09375,0.03579922,0.13550194
11500.0,0.03592084,0.07064132
11503.90625,-0.00897352,-0.01707915
11507.8125,-0.00408675,-0.09969623
11511.71875,-0.00465404,-0.15798533
11515.625,-0.01434821,-0.19290209
11519.53125,-0.02167397,-0.21815974
11523.4375,-0.01860662,-0.24901634
11527.34375,-0.02342768,-0.29504436
11531.25,-0.03620531,-0.35511154
11535.15625,-0.05175157,-0.41809013
11539.0625,-0.04817481,-0.47174618
11542.96875,-0.05050115,-0.51089287
11546.875,-0.05785189,-0.53581339
11550.78125,-0.06431528,-0.54589152
11554.6875,-0.06549016,-0.53895295
11558.59375,-0.04458539,-0.51571476
11562.5,-0.04774685,-0.48052892
11566.40625,-0.05142972,-0.43773982
11570.3125,-0.04190274,-0.39007893
11574.21875,-0.01357993,-0.33884734
11578.125,-0.03538716,-0.28437659
11582.03125,-0.01799352,-0.23066165
11585.9375,0.00324670,-0.18758987
11589.84375,-0.00149015,-0.15981209
11593.75,-0.01656292,-0.13595863
11597.65625,0.01747890,-0.09798489
11601.5625,0.00643151,-0.03948994
11605.46875,0.02365624,0.02812225
11609.375,0.02284966,0.08232884
11613.28125,0.04804228,0.10298809
11617.1875,0.03081168,0.08838751
11621.09375,0.01908052,0.05969536
11625.0,0.02910596,0.04344403
11628.90625,0.02481234,0.04703881
11632.8125,0.01907230,0.05134592
11636.71875,0.03796022,0.02711283
11640.625,0.02104399,-0.03704566
11644.53125,0.00854056,-0.11908845
11648.4375,-0.01921222,-0.17992935
11652.34375,-0.01552195,-0.20051846
11656.25,0.01392181,-0.20086160
11660.15625,-0.00510942,-0.21943501
11664.0625,-0.01377775,-0.27642044
11667.96875,-0.02274066,-0.35765657
11671.875,-0.05165360,-0.42929143
11675.78125,-0.03660890,-0.46656835
11679.6875,-0.02853584,-0.47113761
11683.59375,-0.03717462,-0.46288940
11687.5,-0.04924380,-0.46041837
11691.40625,-0.03685089,-0.47191554
11695.3125,-0.03098443,-0.49612981
11699.21875,-0.05314799,-0.52395707
11703.125,-0.05053399,-0.54274225
11707.03125,-0.04229143,-0.54414052
11710.9375,-0.04961598,-0.52776176
11714.84375,-0.03945184,-0.49870938
11718.75,-0.03344348,-0.46343106
11722.65625,-0.03259768,-0.42564234
11726.5625,-0.01833198,-0.38447881
11730.46875,-0.02480169,-0.33836466
11734.375,-0.01795550,-0.29236028
11738.28125,0.00506227,-0.25954941
11742.1875,-0.00490669,-0.25147417
11746.09375,-0.00795137,-0.26820874
11750.0,-0.01529047,-0.30099031
11753.90625,-0.02050384,-0.34313595
11757.8125,-0.02437741,-0.39512160
11761.71875,-0.01635542,-0.45732021
11765.625,-0.04604248,-0.51695925
11769.53125,-0.04849883,-0.54380697
11773.4375,-0.03890865,-0.50074136
11777.34375,-0.00945238,-0.35817036
11781.25,0.01194196,-0.09980749
11785.15625,0.07809746,0.28112778
11789.0625,0.13886194,0.78890431
11792.96875,0.21880846,1.42531967
11796.875,0.33295476,2.17750955
11800.78125,0.44882303,3.00459051
11804.6875,0.53792399,3.83694339
11808.59375,0.66942489,4.58854866
11812.5,0.74748719,5.17789125
11816.40625,0.78171426,5.54897356
11820.3125,0.80654883,5.67678642
11824.21875,0.78395849,5.55535984
11828.125,0.75003666,5.18761587
11832.03125,0.66138703,4.59071732
11835.9375,0.55787170,3.80737591
11839.84375,0.41094822,2.90450835
11843.75,0.32252932,1.95788312
11847.65625,0.17558149,1.03973448
11851.5625,0.05968043,0.21526815
11855.46875,-0.02658985,-0.46324107
11859.375,-0.09028491,-0.96702725
11863.28125,-0.14518310,-1.29596579
11867.1875,-0.15159102,-1.47320008
11871.09375,-0.17836055,-1.53290832
11875.0,-0.17073412,-1.50982046
11878.90625,-0.14814253,-1.43534207
11882.8125,-0.14337270,-1.33460963
11886.71875,-0.12661563,-1.22146297
11890.625,-0.12037602,-1.09884751
11894.53125,-0.07923069,-0.96733797
11898.4375,-0.08200447,-0.83369470
11902.34375,-0.06096701,-0.71220970
11906.25,-0.02358052,-0.61710852
11910.15625,-0.05799634,-0.55198944
11914.0625,-0.01577472,-0.50827688
11917.96875,-0.01858869,-0.47278017
11921.875,-0.03062289,-0.43414795
11925.78125,-0.00941905,-0.38778201
11929.6875,0.00441033,-0.33986881
11933.59375,-0.00835866,-0.30429575
11937.5,0.00843833,-0.29463944
11941.40625,-0.00922961,-0.31857327
11945.3125,0.00113051,-0.37409040
11949.21875,-0.01538960,-0.44573113
11953.125,-0.03827155,-0.50614399
11957.03125,-0.01391541,-0.52776885
11960.9375,-0.04142313,-0.49973768
11964.84375,-0.01181924,-0.43871304
11968.75,-0.00603347,-0.38173300
11972.65625,0.00864343,-0.35886252
11976.5625,-0.01039354,-0.36859334
11980.46875,-0.02503264,-0.38569802
11984.375,0.00313872,-0.39350423
11988.28125,-0.01794817,-0.40010649
11992.1875,0.00139957,-0.42138749
11996.09375,-0.01474746,-0.45590106
12000.0,-0.03032001,-0.48171148
12003.90625,-0.01976783,-0.47726110
12007.8125,-0.01786673,-0.44269377
12011.71875,-0.00204119,-0.39986375
12015.625,0.00310937,-0.37296495
12019.53125,-0.01007612,-0.36944914
12023.4375,-0.00454456,-0.37796730
12027.34375,-0.01375005,-0.38231674
12031.25,0.00615909,-0.37452242
12035.15625,0.00431465,-0.35421118
12039.0625,-0.01220776,-0.32155553
12042.96875,0.01898862,-0.27694651
12046.875,0.02447021,-0.22411470
12050.78125,0.01244089,-0.16949569
12054.6875,0.03042083,-0.12272674
12058.59375,0.04093762,-0.09728980
12062.5,0.04446134,-0.10151250
12066.40625,0.02404639,-0.12724833
12070.3125,0.01900031,-0.15507244
12074.21875,0.02601771,-0.17320164
12078.125,0.03382707,-0.18662079
12082.03125,0.01952760,-0.20636308
12085.9375,0.02154537,-0.23460682
12089.84375,-0.00165462,-0.26367310
12093.75,0.01777342,-0.28749353
12097.65625,0.01392530,-0.30888629
12101.5625,0.00307923,-0.33360067
12105.46875,-0.00116307,-0.36113319
12109.375,-0.00469737,-0.38452789
12113.28125,0.00123875,-0.39746103
12117.1875,-0.00740148,-0.40039396
12121.09375,-0.00339585,-0.40141708
12125.0,-0.00035771,-0.41110757
12128.90625,-0.01436367,-0.43464524
12132.8125,-0.00627686,-0.46778858
12136.71875,-0.01998207,-0.49959028
12140.625,-0.01956921,-0.51887029
12144.53125,-0.01697647,-0.52033412
12148.4375,-0.02094680,-0.50704175
12152.34375,-0.01517090,-0.48758423
12156.25,-0.00538253,-0.46896762
12160.15625,-0.00700334,-0.45015526
12164.0625,-0.01564223,-0.42438704
12167.96875,0.00224169,-0.39006826
12171.875,0.00248207,-0.35623130
12175.78125,0.01460482,-0.33404583
12179.6875,0.00406460,-0.32509163
12183.59375,0.01326668,-0.31986555
12187.5,0.00629433,-0.30612093
12191.40625,0.00856102,-0.27868709
12195.3125,0.02820058,-0.24321496
12199.21875,0.02957105,-0.20983592
12203.125,0.02743963,-0.18332717
12207.03125,0.01390789,-0.16297698
12210.9375,0.05128017,-0.15038376
12214.84375,0.02772564,-0.15023133
12218.75,0.02736582,-0.16333224
12222.65625,0.04300902,-0.18399554
12226.5625,0.00572410,-0.20444162
12230.46875,0.03531414,-0.22090112
12234.375,0.02046186,-0.23632911
12238.28125,0.01355181,-0.25725237
12242.1875,0.02963613,-0.28806689
12246.09375,-0.00370264,-0.32838944
12250.0,-0.00349233,-0.37534717
12253.90625,0.02070569,-0.42541778
12257.8125,-0.02997204,-0.47145784
12261.71875,-0.00822077,-0.50368392
12265.625,-0.01732654,-0.51856971
12269.53125,-0.01303739,-0.52197492
12273.4375,-0.01857519,-0.52199960
12277.34375,-0.02218964,-0.52415884
12281.25,-0.00969826,-0.53236622
12285.15625,-0.01807776,-0.54659772
12289.0625,-0.02031704,-0.55803347
12292.96875,-0.03608365,-0.55418330
12296.875,-0.01015779,-0.53282058
12300.78125,-0.00341617,-0.50504714
12304.6875,-0.01896347,-0.48103723
12308.59375,-0.00172416,-0.45761141
12312.5,-0.00754551,-0.42307961
12316.40625,-0.00367344,-0.37323308
12320.3125,0.02049272,-0.32215634
12324.21875,0.01595071,-0.29546928
12328.125,0.01471554,-0.31022915
12332.03125,0.00136116,-0.36105400
12335.9375,0.00030266,-0.42490011
12339.84375,-0.01578073,-0.47806132
12343.75,-0.01119490,-0.51034468
12347.65625,-0.01163174,-0.52577066
12351.5625,-0.02923551,-0.53160805
12355.46875,-0.00498533,-0.52605730
12359.375,-0.01090033,-0.49055997
12363.28125,0.00102765,-0.38903216
12367.1875,0.01918446,-0.17656021
12371.09375,0.09902540,0.18901207
12375.0,0.15105462,0.74115974
12378.90625,0.24915940,1.49620676
12382.8125,0.39046443,2.43508410
12386.71875,0.53175706,3.49235225
12390.625,0.67679697,4.56820917
12394.53125,0.80996615,5.55211592
12398.4375,0.92085457,6.33994484
12402.34375,0.98091632,6.84173203
12406.25,1.00415623,6.98784161
12410.15625,0.98440981,6.74171686
12414.0625,0.88147700,6.11660767
12417.96875,0.75589216,5.18042803
12421.875,0.61365819,4.04090357
12425.78125,0.43319035,2.82266951
12429.6875,0.28376579,1.64688849
12433.59375,0.12481789,0.61178970
12437.5,0.03135523,-0.22455578
12441.40625,-0.05844971,-0.84914273
12445.3125,-0.12101945,-1.28226531
12449.21875,-0.15566507,-1.55817854
12453.125,-0.18537739,-1.70955443
12457.03125,-0.17176482,-1.75917840
12460.9375,-0.18434554,-1.71881473
12464.84375,-0.16697145,-1.59638178
12468.75,-0.13287547,-1.40752494
12472.65625,-0.11494821,-1.18150282
12476.5625,-0.07450950,-0.95584124
12480.46875,-0.03172893,-0.76151603
12484.375,-0.03750883,-0.60710114
12488.28125,-0.01327894,-0.47823250
12492.1875,-0.00528063,-0.35776195
12496.09375,0.02926092,-0.24549474
12500.0,0.03948867,-0.15493560
12503.90625,0.04268787,-0.09377159
12507.8125,0.03866222,-0.05445388
12511.71875,0.04519465,-0.02606505
12515.625,0.05603408,-0.01067952
12519.53125,0.05375194,-0.02337699
12523.4375,0.04675772,-0.07652028
12527.34375,0.02783611,-0.16563125
12531.25,0.01652208,-0.26958808
12535.15625,-0.00494691,-0.36324486
12539.0625,0.00601073,-0.43079332
12542.96875,-0.01178649,-0.47014815
12546.875,-0.02200235,-0.48983142
12550.78125,-0.00922796,-0.50410891
12554.6875,-0.02020971,-0.52627307
12558.59375,-0.02598070,-0.56114990
12562.5,-0.01937590,-0.60213983
12566.40625,-0.03540294,-0.63438541
12570.3125,-0.05334832,-0.64421797
12574.21875,-0.02383279,-0.63078469
12578.125,-0.01731033,-0.60594743
12582.03125,-0.04417742,-0.57994926
12585.9375,-0.00593216,-0.55033100
12589.84375,-0.02746331,-0.50425857
12593.75,-0.01005645,-0.42976403
12597.65625,0.01219897,-0.32907107
12601.5625,0.01501918,-0.22342777
12605.46875,0.04176689,-0.14107081
12609.375,0.04141314,-0.09569195
12613.28125,0.03299887,-0.07515220
12617.1875,0.04071195,-0.05276839
12621.09375,0.06113097,-0.00994168
12625.0,0.04104402,0.05087056
12628.90625,0.07838527,0.10970745
12632.8125,0.06712646,0.14437775
12636.71875,0.07599690,0.14798008
12640.625,0.06668817,0.13396029
12644.53125,0.05871290,0.12269638
12648.4375,0.07639243,0.12348423
12652.34375,0.05926915,0.12911063
12656.25,0.07033480,0.12321464
12660.15625,0.06190968,0.09075719
12664.0625,0.06724307,0.02746798
12667.96875,0.02543046,-0.05622116
12671.875,0.02763032,-0.14421916
12675.78125,0.02274529,-0.22928987
12679.6875,0.01388739,-0.31406382
12683.59375,-0.00362320,-0.39886546
12687.5,-0.03493126,-0.47686076
12691.40625,-0.01125719,-0.54232883
12695.3125,-0.02846482,-0.59562618
12699.21875,-0.05220170,-0.63818640
12703.125,-0.02748860,-0.66795117
12707.03125,-0.04706443,-0.67923617
12710.9375,-0.05366018,-0.66605729
12714.84375,-0.03346474,-0.62979507
12718.75,-0.02391452,-0.58159816
12722.65625,-0.02682590,-0.53167802
12726.5625,-0.01805968,-0.47878513
12730.46875,-0.01065911,-0.41412202
12734.375,-0.00120541,-0.33421755
12738.28125,0.01363502,-0.24894340
12742.1875,0.02452507,-0.17647994
12746.09375,0.04442726,-0.12712313
12750.0,0.01436172,-0.09090478
12753.90625,0.04906556,-0.04462902
12757.8125,0.04768391,0.02749565
12761.71875,0.06194911,0.11984806
12765.625,0.07248753,0.20734005
12769.53125,0.08275069,0.26029935
12773.4375,0.09315825,0.26518324
12777.34375,0.07410330,0.23651667
12781.25,0.06439645,0.20529564
12785.15625,0.06870924,0.19118230
12789.0625,0.07704270,0.18716474
12792.96875,0.07253511,0.17226051
12796.875,0.06722084,0.13470720
12800.78125,0.04638823,0.07872377
12804.6875,0.04259927,0.01092620
12808.59375,0.03751316,-0.07273073
12812.5,0.02904184,-0.18090068
12816.40625,-0.00114120,-0.30916157
12820.3125,-0.01474167,-0.43401867
12824.21875,-0.03318569,-0.52732354
12828.125,-0.03734114,-0.57656872
12832.03125,-0.02995150,-0.59195668
12835.9375,-0.03882986,-0.59540838
12839.84375,-0.03668401,-0.60278666
12843.75,-0.03410339,-0.61397082
12847.65625,-0.05568797,-0.61771208
12851.5625,-0.03615598,-0.60677040
12855.46875,-0.03262568,-0.58739364
12859.375,-0.02515953,-0.57243377
12863.28125,-0.06017403,-0.57025105
12867.1875,-0.01870729,-0.58300626
12871.09375,-0.03289679,-0.60663199
12875.0,-0.05951619,-0.62945259
12878.90625,-0.04997142,-0.64205372
12882.8125,-0.03249155,-0.64984483
12886.71875,-0.05085350,-0.66455215
12890.625,-0.05745020,-0.68202931
12894.53125,-0.04754763,-0.67141384
12898.4375,-0.02512895,-0.57709140
12902.34375,-0.00441150,-0.32689828
12906.25,0.04192872,0.14324073
12910.15625,0.15680385,0.84868866
12914.0625,0.29051030,1.73105466
12917.96875,0.39469928,2.67132425
12921.875,0.52181613,3.52400827
12925.78125,0.60213685,4.14863205
12929.6875,0.65761203,4.43630075
12933.59375,0.61463010,4.33070469
12937.5,0.56898820,3.83549905
12941.40625,0.44791672,3.01084208
12945.3125,0.31606400,1.96840298
12949.21875,0.15288296,0.85892409
12953.125,0.00967468,-0.16075501
12957.03125,-0.09461340,-0.97387439
12960.9375,-0.16780272,-1.53559363
12964.84375,-0.22413966,-1.87154186
12968.75,-0.22862729,-2.04695034
12972.65625,-0.23886612,-2.12334728
12976.5625,-0.26262739,-2.12771773
12980.46875,-0.23937981,-2.05633450
12984.375,-0.23469140,-1.90638912
12988.28125,-0.18731056,-1.70013797
12992.1875,-0.14787996,-1.47605371
12996.09375,-0.13601369,-1.26057351
13000.0,-0.12627386,-1.05691588
13003.90625,-0.06273111,-0.86056930
13007.8125,-0.06194111,-0.67247534
13011.71875,-0.01167864,-0.49333596
13015.625,-0.03046405,-0.31949973
13019.53125,0.01851255,-0.15512273
13023.4375,0.04605118,-0.01985146
13027.34375,0.04523210,0.06805868
13031.25,0.04912811,0.11455920
13035.15625,0.06432730,0.14894697
13039.0625,0.05035296,0.19979131
13042.96875,0.06764160,0.27023748
13046.875,0.09295240,0.33488104
13050.78125,0.09764394,0.36435866
13054.6875,0.07238392,0.35356572
13058.59375,0.07222527,0.32214937
13062.5,0.09029849,0.29170024
13066.40625,0.05486783,0.26828310
13070.3125,0.08023930,0.24149978
13074.21875,0.05916703,0.19431463
13078.125,0.05257667,0.11694633
13082.03125,0.03626061,0.01538757
13085.9375,0.02992536,-0.09191237
13089.84375,-0.00346991,-0.18610488
13093.75,-0.00634210,-0.26082334
13097.65625,0.00864347,-0.32382640
13101.5625,-0.01250041,-0.38261130
13105.46875,-0.04481249,-0.43292928
13109.375,-0.02266493,-0.46792635
13113.28125,-0.03711061,-0.49217489
13117.1875,-0.02250061,-0.51757419
13121.09375,-0.04465906,-0.54746687
13125.0,-0.04333101,-0.57072902
13128.90625,-0.06129405,-0.57288712
13132.8125,-0.02334476,-0.55035746
13136.71875,-0.03771844,-0.51072890
13140.625,-0.03290816,-0.46100530
13144.53125,-0.01512955,-0.39965841
13148.4375,-0.01914728,-0.31978825
13152.34375,0.00660926,-0.21844003
13156.25,0.02263888,-0.10311072
13160.15625,0.02877082,0.01049155
13164.0625,0.04817953,0.10663095
13167.96875,0.06570032,0.17823128
13171.875,0.06476256,0.23240986
13175.78125,0.05567240,0.28519902
13179.6875,0.08388184,0.34474733
13183.59375,0.09606660,0.40159857
13187.5,0.09543935,0.43929982
13191.40625,0.08017415,0.44945678
13195.3125,0.08839253,0.43199655
13199.21875,0.10050283,0.38850024
13203.125,0.07322387,0.32400173
13207.03125,0.06420083,0.25077698
13210.9375,0.04441074,0.18040748
13214.84375,0.04750178,0.11089201
13218.75,0.05430734,0.02852894
13222.65625,0.01953174,-0.07345151
13226.5625,-0.00855819,-0.18314894
13230.46875,-0.00737593,-0.28047520
13234.375,-0.00029202,-0.35253930
13238.28125,-0.03180568,-0.39569592
13242.1875,-0.03045431,-0.41285458
13246.09375,-0.01513414,-0.41500381
13250.0,-0.03777662,-0.41920173
13253.90625,-0.01814144,-0.43995291
13257.8125,-0.03925389,-0.48079345
13261.71875,-0.03539931,-0.53088605
13265.625,-0.05703938,-0.56929189
13269.53125,-0.03798321,-0.57562858
13273.4375,-0.04868008,-0.54027122
13277.34375,-0.04701222,-0.46979028
13281.25,0.00323444,-0.38426098
13285.15625,-0.01758359,-0.30350015
13289.0625,-0.01322013,-0.23339944
13292.96875,0.01985902,-0.16676216
13296.875,0.00881110,-0.09345009
13300.78125,0.03399613,-0.00908637
13304.6875,0.03384570,0.08017913
13308.59375,0.06441530,0.16104935
13312.5,0.04836557,0.22383519
13316.40625,0.07075954,0.26710868
13320.3125,0.06328780,0.29142982
13324.21875,0.08559300,0.29622102
13328.125,0.06049411,0.28637746
13332.03125,0.05301795,0.27391487
13335.9375,0.08498221,0.26713052
13339.84375,0.05146670,0.26241434
13343.75,0.07553308,0.24910837
13347.65625,0.05253658,0.21852514
13351.5625,0.04245473,0.16722842
13355.46875,0.06003201,0.09632527
13359.375,0.02230653,0.01242918
13363.28125,0.01873329,-0.07276098
13367.1875,0.00771337,-0.14902574
13371.09375,0.00195281,-0.21358451
13375.0,-0.01493449,-0.26986483
13378.90625,-0.00450651,-0.32264870
13382.8125,-0.02355936,-0.37357295
13386.71875,-0.03078479,-0.41964635
13390.625,-0.04582918,-0.45728499
13394.53125,-0.01793921,-0.48604810
13398.4375,-0.05004790,-0.50518793
13402.34375,-0.03866034,-0.50963140
13406.25,-0.03813320,-0.49319655
13410.15625,-0.03902800,-0.45396501
13414.0625,-0.02167601,-0.39620572
13417.96875,-0.01981016,-0.32980579
13421.875,-0.00242197,-0.26633537
13425.78125,0.00146645,-0.21089926
13429.6875,-0.00017594,-0.15696573
13433.59375,0.01626124,-0.09290744
13437.5,0.01980441,-0.01559365
13441.40625,0.04942070,0.06504142
13445.3125,0.04271978,0.13691193
13449.21875,0.05736030,0.19826126
13453.125,0.04857682,0.25473425
13457.03125,0.07832546,0.30473298
13460.9375,0.06956594,0.33372626
13464.84375,0.08672088,0.32750168
13468.75,0.05333500,0.28952715
13472.65625,0.06001885,0.24131119
13476.5625,0.06069077,0.20498906
13480.46875,0.04438066,0.18606505
13484.375,0.05908651,0.17046884
13488.28125,0.03976719,0.13667078
13492.1875,0.04328160,0.07315781
13496.09375,0.02381426,-0.01310630
13500.0,0.01194992,-0.10375825
13503.90625,0.00545229,-0.18372327
13507.8125,-0.02063823,-0.25135857
13511.71875,-0.01205909,-0.31738228
13515.625,-0.00853106,-0.39113778
13519.53125,-0.04141957,-0.46431085
13523.4375,-0.05633129,-0.51401067
13527.34375,-0.04737218,-0.52778000
13531.25,-0.03569186,-0.51976502
13535.15625,-0.04336511,-0.51603371
13539.0625,-0.03436253,-0.52654308
13542.96875,-0.05315529,-0.53476691
13546.875,-0.05624422,-0.51501095
13550.78125,-0.03290978,-0.45898432
13554.6875,-0.01705280,-0.38291556
13558.59375,-0.01179348,-0.30955860
13562.5,-0.01774913,-0.24911365
13566.40625,0.00849143,-0.19737984
13570.3125,-0.00427103,-0.14440235
13574.21875,0.01693333,-0.08213118
13578.125,0.03886092,-0.00794411
13582.03125,0.02578103,0.07443234
13585.9375,0.03262826,0.15313335
13589.84375,0.08182678,0.20974010
13593.75,0.03512448,0.23143092
13597.65625,0.07709657,0.22355886
13601.5625,0.04735652,0.20714244
13605.46875,0.04119493,0.20214592
13609.375,0.05370335,0.20931432
13613.28125,0.06198643,0.20824198
13617.1875,0.06172605,0.17906946
