rel_ms,value_mv,normalized
0.0,-0.02085920,-0.30032480
3.90625,-0.01591700,-0.42295024
7.8125,-0.01608785,-0.48541975
11.71875,-0.00385127,-0.49205974
15.625,-0.02726015,-0.46325576
19.53125,-0.00165327,-0.41685617
23.4375,-0.01075061,-0.36539245
27.34375,0.01158197,-0.31991732
31.25,0.01246352,-0.29038596
35.15625,0.01781100,-0.28135499
39.0625,0.01043606,-0.28818592
42.96875,0.00071252,-0.30064046
46.875,0.01178882,-0.31183928
50.78125,0.01965942,-0.32099909
54.6875,-0.00612719,-0.32775530
58.59375,0.00916239,-0.33048615
62.5,0.00144826,-0.33170363
66.40625,0.01936263,-0.33770287
70.3125,-0.00783830,-0.35008392
74.21875,-0.00129219,-0.36348552
78.125,0.00679628,-0.37328532
82.03125,0.00566729,-0.37958825
85.9375,-0.01698176,-0.38296175
89.84375,0.00713503,-0.38217717
93.75,0.00151264,-0.37694243
97.65625,0.00017897,-0.36980563
101.5625,0.00131354,-0.36552820
105.46875,0.00592592,-0.36886528
109.375,-0.01837751,-0.38195401
113.28125,0.02216968,-0.40200448
117.1875,-0.00667650,-0.41815525
121.09375,-0.02311504,-0.41381276
125.0,0.00291811,-0.38098103
128.90625,0.02151186,-0.33231539
132.8125,-0.00208098,-0.29489279
136.71875,0.02287751,-0.29300126
140.625,0.02306533,-0.33165389
144.53125,-0.00585110,-0.38849276
148.4375,-0.02496029,-0.42827889
152.34375,-0.01008172,-0.43524209
156.25,0.01910879,-0.42563781
160.15625,-0.00482271,-0.42222026
164.0625,-0.01303082,-0.42548794
167.96875,-0.01083645,-0.41806421
171.875,0.00533642,-0.38995641
175.78125,0.00513913,-0.35171059
179.6875,0.01603493,-0.32591966
183.59375,0.01755675,-0.32902002
187.5,-0.00538129,-0.35868165
191.40625,0.00404191,-0.39681637
195.3125,-0.00756710,-0.42407304
199.21875,0.00701968,-0.43026301
203.125,-0.00753366,-0.41382778
207.03125,-0.00801297,-0.37858421
210.9375,0.03198729,-0.33329910
214.84375,0.00701084,-0.29041058
218.75,0.01445604,-0.26381612
222.65625,0.03731063,-0.26570216
226.5625,0.01639895,-0.29718801
230.46875,0.00571465,-0.34057644
234.375,0.00785524,-0.36917153
238.28125,-0.00161703,-0.36873290
242.1875,0.02056756,-0.34818658
246.09375,0.00359454,-0.33031270
250.0,0.02884016,-0.33215010
253.90625,0.00369171,-0.35119769
257.8125,0.00374787,-0.36903828
261.71875,0.00315594,-0.36981067
265.625,0.01594932,-0.35482886
269.53125,0.01102280,-0.33790767
273.4375,0.02570495,-0.32839608
277.34375,0.00326506,-0.32238823
281.25,0.01431338,-0.31102675
285.15625,0.03537787,-0.29260156
289.0625,0.01101447,-0.27329344
292.96875,0.02268594,-0.26104248
296.875,0.03831271,-0.26051760
300.78125,0.03014235,-0.26593721
304.6875,0.02094477,-0.25756669
308.59375,0.00994186,-0.21590006
312.5,0.07061114,-0.14228350
316.40625,0.05524174,-0.05778934
320.3125,0.07417702,0.01792654
324.21875,0.06279351,0.07853323
328.125,0.09987382,0.12504761
332.03125,0.09343532,0.15973909
335.9375,0.09603597,0.18693165
339.84375,0.09143414,0.21052074
343.75,0.11162359,0.22778663
347.65625,0.10411027,0.23126937
351.5625,0.10762344,0.21854869
355.46875,0.08876176,0.19572380
359.375,0.09802356,0.16986446
363.28125,0.09956107,0.14213550
367.1875,0.07484898,0.10917392
371.09375,0.08194619,0.06666817
375.0,0.07972400,0.01175291
378.90625,0.05878199,-0.05319860
382.8125,0.04612527,-0.12018329
386.71875,0.03798080,-0.18231678
390.625,0.04951505,-0.23780781
394.53125,0.01366780,-0.28515929
398.4375,0.02341611,-0.31995758
402.34375,0.01795283,-0.33925751
406.25,0.02159790,-0.34491888
410.15625,0.01670728,-0.34217718
414.0625,0.00257094,-0.33967948
417.96875,0.03917148,-0.34849837
421.875,0.01603966,-0.37215674
425.78125,-0.00269297,-0.39855784
429.6875,0.00241780,-0.41146556
433.59375,0.01411470,-0.40952995
437.5,0.02015757,-0.40593228
441.40625,-0.00361648,-0.41099286
445.3125,0.02005158,-0.42255330
449.21875,-0.00765922,-0.43455237
453.125,-0.00690590,-0.45373109
457.03125,0.00124816,-0.50485379
460.9375,-0.00572779,-0.60737479
464.84375,-0.04495277,-0.73412538
468.75,-0.05362985,-0.79011405
472.65625,-0.00973228,-0.63371885
476.5625,0.03806172,-0.12864828
480.46875,0.19279817,0.79387301
484.375,0.38871807,2.08338118
488.28125,0.62714434,3.55487823
492.1875,0.83730286,4.92507601
496.09375,0.98845118,5.89051008
500.0,1.05526924,6.22093248
503.90625,0.97347683,5.83442879
507.8125,0.83509004,4.82322884
511.71875,0.59526515,3.41806602
515.625,0.35742509,1.90592206
519.53125,0.15363255,0.53681552
523.4375,-0.00659672,-0.53812009
527.34375,-0.11364532,-1.27415740
531.25,-0.19345641,-1.69979501
535.15625,-0.21175043,-1.87556517
539.0625,-0.20757954,-1.86558092
542.96875,-0.19685683,-1.72585654
546.875,-0.17028391,-1.50688756
550.78125,-0.10564748,-1.25901484
554.6875,-0.07385591,-1.02603388
558.59375,-0.06976140,-0.83315307
562.5,-0.03187518,-0.68767220
566.40625,-0.00186993,-0.58825654
570.3125,-0.00988640,-0.52632421
574.21875,0.00426710,-0.48452449
578.125,-0.00484223,-0.44528976
582.03125,0.02242512,-0.40247777
585.9375,0.02175448,-0.36183736
589.84375,0.02202340,-0.33185306
593.75,0.03834644,-0.31610474
597.65625,0.01793606,-0.31220454
601.5625,0.02007236,-0.31578115
605.46875,0.04938317,-0.32354176
609.375,0.01139723,-0.33011138
613.28125,0.03791774,-0.32509455
617.1875,0.01587920,-0.29971448
621.09375,0.03735705,-0.25703797
625.0,0.06317947,-0.21111937
628.90625,0.04475835,-0.17438351
632.8125,0.03643285,-0.15023732
636.71875,0.07901368,-0.13746348
640.625,0.04913368,-0.13173494
644.53125,0.05901829,-0.12048921
648.4375,0.07157844,-0.08573057
652.34375,0.05886596,-0.01818092
656.25,0.09603588,0.07107707
660.15625,0.11038662,0.15579753
664.0625,0.10899099,0.21486115
667.96875,0.11337417,0.24694848
671.875,0.11770928,0.26628074
675.78125,0.14075507,0.29072422
679.6875,0.10339145,0.33419278
683.59375,0.15116726,0.40154898
687.5,0.16752034,0.48777696
691.40625,0.15261693,0.58448750
695.3125,0.19366030,0.68491042
699.21875,0.19910811,0.78321958
703.125,0.21217798,0.87478048
707.03125,0.22549428,0.95687765
710.9375,0.24245766,1.02713704
714.84375,0.25178552,1.08427811
718.75,0.24389437,1.13132477
722.65625,0.26417774,1.17511463
726.5625,0.27169526,1.22297597
730.46875,0.28158545,1.28122592
734.375,0.28011698,1.35273385
738.28125,0.30368769,1.43126881
742.1875,0.31122628,1.49974120
746.09375,0.31598538,1.53737104
750.0,0.32134542,1.53077531
753.90625,0.31573826,1.48259521
757.8125,0.29024038,1.41303110
761.71875,0.28495869,1.34990799
765.625,0.28281406,1.31182730
769.53125,0.28829521,1.29818130
773.4375,0.27288589,1.29231942
777.34375,0.27813169,1.27196622
781.25,0.27689838,1.22059429
785.15625,0.24197172,1.13513839
789.0625,0.24825117,1.02520466
792.96875,0.22059464,0.90639806
796.875,0.19852088,0.79465818
800.78125,0.18663177,0.70221913
804.6875,0.18603007,0.63412225
808.59375,0.15506096,0.58598769
812.5,0.17193896,0.54403836
816.40625,0.17238650,0.49258518
820.3125,0.12889884,0.42717245
824.21875,0.12788300,0.35691035
828.125,0.13989733,0.29243395
832.03125,0.11554359,0.23707372
835.9375,0.10429388,0.18693532
839.84375,0.08997542,0.13094053
843.75,0.09712465,0.05415108
847.65625,0.08126657,-0.04761287
851.5625,0.05734741,-0.15398122
855.46875,0.03483191,-0.22857526
859.375,0.02609620,-0.24836740
863.28125,0.06100460,-0.22494355
867.1875,0.04530356,-0.19488688
871.09375,0.06177378,-0.18977496
875.0,0.04689632,-0.21478127
878.90625,0.02233592,-0.25264823
882.8125,0.03831535,-0.28489307
886.71875,0.04673232,-0.30618984
890.625,0.01954055,-0.32065225
894.53125,0.02248541,-0.33358541
898.4375,0.04797434,-0.34818089
902.34375,0.00484996,-0.36303154
906.25,0.01165019,-0.37451449
910.15625,0.03643709,-0.38444233
914.0625,0.02547924,-0.39709276
917.96875,0.00876595,-0.40691665
921.875,0.00450784,-0.40027493
925.78125,0.02712040,-0.37247813
929.6875,0.03579653,-0.33545914
933.59375,0.03087580,-0.30734789
937.5,0.02567640,-0.29982075
941.40625,0.03851755,-0.31371561
945.3125,0.02417142,-0.33985099
949.21875,0.01034312,-0.36448449
953.125,0.04463412,-0.37810385
957.03125,0.00538042,-0.37916595
960.9375,0.01852702,-0.37257540
964.84375,0.01922877,-0.36874038
968.75,0.03725239,-0.37819922
972.65625,0.01089446,-0.39989007
976.5625,0.01672367,-0.41804022
980.46875,-0.00133121,-0.41663694
984.375,0.02407631,-0.39669102
988.28125,0.02536208,-0.37602773
992.1875,0.02782387,-0.37186283
996.09375,0.00889140,-0.38585630
1000.0,0.02284548,-0.40497985
1003.90625,0.00939648,-0.41264182
1007.8125,0.01425381,-0.40050274
1011.71875,0.01905704,-0.37592804
1015.625,0.03550814,-0.35834277
1019.53125,0.01470892,-0.36337581
1023.4375,0.02207533,-0.38881525
1027.34375,0.00981319,-0.41646379
1031.25,0.01309708,-0.42730039
1035.15625,0.01150766,-0.41630191
1039.0625,0.01800607,-0.39502388
1042.96875,0.02909710,-0.38004512
1046.875,0.00661031,-0.37876904
1050.78125,0.02848930,-0.38674474
1054.6875,0.00841909,-0.39604175
1058.59375,0.02383948,-0.40207115
1062.5,0.01317327,-0.40235156
1066.40625,0.01614441,-0.39336944
1070.3125,0.01505212,-0.37346399
1074.21875,0.03290898,-0.34870684
1078.125,0.02272319,-0.33153301
1082.03125,0.03250604,-0.33111677
1085.9375,0.01521725,-0.34669772
1089.84375,0.01670204,-0.37095308
1093.75,0.03889196,-0.39551330
1097.65625,-0.00028038,-0.41061559
1101.5625,0.00892841,-0.40684131
1105.46875,0.01730841,-0.38406682
1109.375,0.04127822,-0.35389727
1113.28125,0.01208341,-0.32955262
1117.1875,0.02890140,-0.31782556
1121.09375,0.03833914,-0.31969085
1125.0,0.01648521,-0.33201310
1128.90625,0.01721089,-0.34957519
1132.8125,0.03932040,-0.36780033
1136.71875,0.01259514,-0.38107294
1140.625,0.00657025,-0.38234898
1144.53125,0.02912234,-0.37117505
1148.4375,0.01295614,-0.35862973
1152.34375,0.03469629,-0.35801163
1156.25,0.02556320,-0.37087098
1160.15625,-0.00198848,-0.38574520
1164.0625,0.02237943,-0.39208865
1167.96875,0.01913732,-0.39201665
1171.875,0.01100356,-0.39575538
1175.78125,0.03218541,-0.40831152
1179.6875,-0.00236529,-0.42291757
1183.59375,0.00381382,-0.42840517
1187.5,0.01285769,-0.42302552
1191.40625,0.02829739,-0.41710529
1195.3125,0.00023236,-0.42088604
1199.21875,0.01103517,-0.43440029
1203.125,0.01004905,-0.44923076
1207.03125,0.00044173,-0.45548230
1210.9375,0.01387380,-0.44789153
1214.84375,0.00464334,-0.42957366
1218.75,0.01296303,-0.41106758
1222.65625,0.02177344,-0.40400419
1226.5625,0.00730584,-0.41353253
1230.46875,0.00773228,-0.43586180
1234.375,0.00628004,-0.46157929
1238.28125,0.00789567,-0.47885102
1242.1875,-0.00080751,-0.47541490
1246.09375,0.00380741,-0.44431055
1250.0,0.01940389,-0.39221418
1253.90625,0.00733803,-0.34168339
1257.8125,0.05718910,-0.32030705
1261.71875,0.00801342,-0.34026271
1265.625,0.02327647,-0.38577735
1269.53125,-0.00039168,-0.42364618
1273.4375,0.01443254,-0.42873651
1277.34375,0.01103680,-0.40231487
1281.25,0.01662018,-0.36969084
1285.15625,0.03356146,-0.35930017
1289.0625,0.01547421,-0.37902501
1292.96875,0.00291693,-0.41048068
1296.875,0.01886613,-0.42565903
1300.78125,0.00576321,-0.40811956
1304.6875,0.01591736,-0.36285993
1308.59375,0.03657268,-0.31320041
1312.5,0.02880192,-0.28723431
1316.40625,0.03038680,-0.30051991
1320.3125,0.02377789,-0.34644201
1324.21875,0.01708475,-0.40006906
1328.125,-0.00128951,-0.43295845
1332.03125,0.01153266,-0.43064442
1335.9375,0.01080601,-0.40062332
1339.84375,0.02535878,-0.36421323
1343.75,0.02914122,-0.33907479
1347.65625,0.02292867,-0.32755575
1351.5625,0.00760055,-0.32174543
1355.46875,0.03945887,-0.31794208
1359.375,0.03442534,-0.32031080
1363.28125,0.01502531,-0.33056110
1367.1875,0.02042327,-0.34222922
1371.09375,0.02640613,-0.34699398
1375.0,0.02097163,-0.34185240
1378.90625,0.01999521,-0.33097863
1382.8125,0.02914422,-0.32339522
1386.71875,0.02609076,-0.32507327
1390.625,0.03203199,-0.32935542
1394.53125,0.01483819,-0.31849039
1398.4375,0.02053825,-0.27956995
1402.34375,0.06745734,-0.21682206
1406.25,0.03604666,-0.14477415
1410.15625,0.06876389,-0.07408412
1414.0625,0.07594226,-0.00726121
1417.96875,0.08415076,0.05751394
1421.875,0.08228221,0.12026854
1425.78125,0.11115051,0.17353937
1429.6875,0.11024383,0.20554817
1433.59375,0.10724104,0.21254934
1437.5,0.09764820,0.20438889
1441.40625,0.11260580,0.19553715
1445.3125,0.10657664,0.19356436
1449.21875,0.09475000,0.19531517
1453.125,0.10846443,0.18931200
1457.03125,0.10328332,0.16323024
1460.9375,0.09755708,0.11487257
1464.84375,0.07962781,0.05643232
1468.75,0.06574812,0.00432163
1472.65625,0.07317588,-0.03642364
1476.5625,0.06022270,-0.07567741
1480.46875,0.07101227,-0.12437154
1484.375,0.04347019,-0.17855503
1488.28125,0.01999430,-0.22271608
1492.1875,0.03837806,-0.25049338
1496.09375,0.05126156,-0.27290705
1500.0,0.02385601,-0.30025518
1503.90625,0.01636166,-0.32636970
1507.8125,0.00992815,-0.34022355
1511.71875,0.03901044,-0.34499088
1515.625,0.01309499,-0.35546169
1519.53125,0.01187581,-0.38056180
1523.4375,0.01812954,-0.41471168
1527.34375,-0.00292328,-0.44296142
1531.25,0.01048960,-0.45115814
1535.15625,-0.00235772,-0.43597901
1539.0625,0.00892639,-0.41222402
1542.96875,0.01141264,-0.41178277
1546.875,0.00640870,-0.46859661
1550.78125,-0.02578255,-0.59293193
1554.6875,-0.02956888,-0.74792540
1558.59375,-0.05521337,-0.84197152
1562.5,-0.05612855,-0.74644548
1566.40625,0.03078672,-0.33674178
1570.3125,0.14235145,0.46154153
1574.21875,0.32827532,1.63627326
1578.125,0.51913881,3.06323695
1582.03125,0.77955240,4.50303936
1585.9375,0.95910221,5.64847136
1589.84375,1.04573071,6.22306156
1593.75,1.02585685,6.08172274
1597.65625,0.87138516,5.25679731
1601.5625,0.69111902,3.93414688
1605.46875,0.43807510,2.38553071
1609.375,0.21592061,0.89082760
1613.28125,0.00064887,-0.33228162
1617.1875,-0.12176886,-1.17812157
1621.09375,-0.16093162,-1.65937328
1625.0,-0.21395577,-1.86078930
1628.90625,-0.21393695,-1.87382305
1632.8125,-0.21138287,-1.76100278
1636.71875,-0.17407738,-1.56184411
1640.625,-0.12439737,-1.31324828
1644.53125,-0.10039944,-1.05730402
1648.4375,-0.04022707,-0.83205408
1652.34375,-0.04292780,-0.65786219
1656.25,-0.00861803,-0.53441608
1660.15625,-0.00298853,-0.45132324
1664.0625,0.01124423,-0.39962491
1667.96875,0.02567390,-0.37254319
1671.875,-0.00074562,-0.36079791
1675.78125,0.01941403,-0.35460824
1679.6875,0.01635661,-0.34981534
1683.59375,0.02593051,-0.34591430
1687.5,0.01651658,-0.33824682
1691.40625,0.01205299,-0.31906804
1695.3125,0.02536550,-0.28873947
1699.21875,0.03697909,-0.26048288
1703.125,0.03269010,-0.24973768
1707.03125,0.02699303,-0.26027575
1710.9375,0.03281948,-0.28138512
1714.84375,0.01218212,-0.29603696
1718.75,0.02761500,-0.29173946
1722.65625,0.03496477,-0.26555130
1726.5625,0.03593681,-0.22038534
1730.46875,0.03890055,-0.16053079
1734.375,0.05223607,-0.09379693
1738.28125,0.06371001,-0.03343538
1742.1875,0.08888470,0.01027771
1746.09375,0.06451273,0.04180547
1750.0,0.06996992,0.07773177
1753.90625,0.10142250,0.13074647
1757.8125,0.10051158,0.20036182
1761.71875,0.09774461,0.27637759
1765.625,0.13709021,0.34538504
1769.53125,0.12698583,0.39897639
1773.4375,0.13676283,0.44280174
1777.34375,0.14482762,0.49541312
1781.25,0.15290551,0.57417119
1785.15625,0.17706904,0.68038321
1789.0625,0.17628567,0.79567593
1792.96875,0.22905377,0.89414352
1796.875,0.21516041,0.96401179
1800.78125,0.21937837,1.01801693
1804.6875,0.22375929,1.07708800
1808.59375,0.24615608,1.14466107
1812.5,0.26429406,1.20406210
1816.40625,0.26359993,1.24177587
1820.3125,0.25433618,1.26623225
1824.21875,0.27148288,1.29935074
1828.125,0.25878221,1.35175204
1832.03125,0.30014804,1.40967989
1835.9375,0.29347792,1.44764686
1839.84375,0.28873068,1.45264256
1843.75,0.28930393,1.43378878
1847.65625,0.27713507,1.40987563
1851.5625,0.27897406,1.39104879
1855.46875,0.28770080,1.37301612
1859.375,0.26981610,1.34618437
1863.28125,0.27040359,1.30667949
1867.1875,0.25788981,1.25777674
1871.09375,0.24897243,1.20371079
1875.0,0.24010698,1.14404917
1878.90625,0.23814616,1.07366109
1882.8125,0.21096611,0.98808002
1886.71875,0.21097636,0.88989514
1890.625,0.18138976,0.79095334
1894.53125,0.17177820,0.70650572
1898.4375,0.15799242,0.64292318
1902.34375,0.16473681,0.59031177
1906.25,0.13898224,0.53026938
1910.15625,0.14570500,0.45270100
1914.0625,0.10751332,0.36480552
1917.96875,0.11357958,0.28335881
1921.875,0.08480021,0.21853724
1925.78125,0.10240304,0.16583061
1929.6875,0.07147314,0.11274578
1933.59375,0.07673024,0.05089382
1937.5,0.05509694,-0.01842153
1941.40625,0.04688748,-0.08639228
1945.3125,0.05230617,-0.14111432
1949.21875,0.02277110,-0.17298268
1953.125,0.02357904,-0.18326491
1957.03125,0.05110278,-0.18833981
1960.9375,0.01873364,-0.20845936
1964.84375,0.03447249,-0.24914652
1968.75,0.01092519,-0.29541671
1972.65625,-0.00145995,-0.32499495
1976.5625,0.01061454,-0.32815665
1980.46875,0.02365310,-0.31506932
1984.375,0.01095943,-0.30409610
1988.28125,0.00600080,-0.30607715
1992.1875,0.01831592,-0.31973270
1996.09375,-0.00233219,-0.33655417
2000.0,0.01436185,-0.34763679
2003.90625,0.00849776,-0.34828520
2007.8125,-0.00837380,-0.33992243
2011.71875,0.01434859,-0.33057716
2015.625,0.01613410,-0.33106020
2019.53125,-0.00076709,-0.34598684
2023.4375,0.00315421,-0.36890158
2027.34375,-0.00202200,-0.38774362
2031.25,-0.01245578,-0.39502728
2035.15625,0.01019922,-0.39369661
2039.0625,-0.01165693,-0.39296851
2042.96875,0.00651548,-0.39696926
2046.875,-0.00639709,-0.39814678
2050.78125,-0.01254222,-0.38480604
2054.6875,0.00696072,-0.35656649
2058.59375,0.00223367,-0.32934594
2062.5,0.02141624,-0.32136542
2066.40625,-0.00171822,-0.33480996
2070.3125,0.00078125,-0.35325545
2074.21875,0.00024358,-0.35666263
2078.125,-0.00426784,-0.33904833
2082.03125,0.01440013,-0.31423560
2085.9375,0.01652817,-0.30438647
2089.84375,0.00653442,-0.32001868
2093.75,-0.01383345,-0.35189995
2097.65625,0.00356767,-0.38301790
2101.5625,-0.00124930,-0.40276381
2105.46875,-0.00745389,-0.40715680
2109.375,-0.02078886,-0.39401320
2113.28125,0.00831487,-0.36489257
2117.1875,0.01198666,-0.32746395
2121.09375,0.00120946,-0.29227746
2125.0,0.00282029,-0.27100453
2128.90625,0.01833114,-0.27617764
2132.8125,0.02033759,-0.31180671
2136.71875,-0.00033436,-0.36106601
2140.625,-0.03734700,-0.39424962
2144.53125,0.00530907,-0.39642918
2148.4375,-0.00153108,-0.38091820
2152.34375,0.00473623,-0.37076804
2156.25,-0.00980584,-0.37370107
2160.15625,-0.01574200,-0.37977248
2164.0625,0.00225503,-0.37793803
2167.96875,-0.00757616,-0.36878771
2171.875,-0.00288474,-0.36225146
2175.78125,0.00074666,-0.36622050
2179.6875,-0.00315457,-0.37769905
2183.59375,-0.02177108,-0.38581553
2187.5,0.00221599,-0.38440058
2191.40625,-0.01067025,-0.37896281
2195.3125,-0.00748905,-0.38048077
2199.21875,-0.00002073,-0.39506140
2203.125,-0.02267217,-0.41862574
2207.03125,-0.00859213,-0.43813017
2210.9375,-0.02746764,-0.43920204
2214.84375,-0.01240446,-0.41775966
2218.75,-0.00182179,-0.38616949
2222.65625,-0.00777608,-0.36497536
2226.5625,-0.00963576,-0.36602816
2230.46875,0.00043694,-0.38262421
2234.375,-0.01148269,-0.39480084
2238.28125,-0.02596672,-0.38662717
2242.1875,0.00572345,-0.36198667
2246.09375,-0.00474830,-0.34204203
2250.0,0.00200978,-0.34594747
2253.90625,-0.01250096,-0.37561294
2257.8125,-0.01297714,-0.41627300
2261.71875,-0.01683820,-0.44658539
2265.625,-0.03119436,-0.45096901
2269.53125,-0.01390789,-0.43037194
2273.4375,-0.01568288,-0.40268108
2277.34375,0.01028616,-0.38730428
2281.25,-0.03161519,-0.38801992
2285.15625,-0.00862585,-0.39398113
2289.0625,-0.01133367,-0.39449304
2292.96875,-0.01030414,-0.38719872
2296.875,-0.01135779,-0.37576661
2300.78125,-0.00709548,-0.36646089
2304.6875,0.00035745,-0.36518195
2308.59375,-0.02983226,-0.37442711
2312.5,-0.00020875,-0.39395657
2316.40625,-0.01372124,-0.42218408
2320.3125,-0.02234080,-0.45328766
2324.21875,-0.03295865,-0.47639260
2328.125,-0.03271073,-0.48262289
2332.03125,-0.01192083,-0.47186154
2335.9375,-0.02462256,-0.45094955
2339.84375,-0.02479769,-0.42860237
2343.75,-0.01735715,-0.41372371
2347.65625,-0.01131355,-0.41300270
2351.5625,-0.01729051,-0.42499840
2355.46875,-0.02532548,-0.43845233
2359.375,-0.01933817,-0.43911189
2363.28125,-0.01401816,-0.41839239
2367.1875,-0.02458419,-0.37899366
2371.09375,-0.00123991,-0.33721864
2375.0,0.00306641,-0.31622344
2378.90625,0.00327426,-0.32794559
2382.8125,-0.01611806,-0.35993519
2386.71875,-0.01642294,-0.38480818
2390.625,-0.02337965,-0.38497388
2394.53125,0.00401384,-0.36730862
2398.4375,-0.01823938,-0.35396034
2402.34375,0.01343906,-0.35979414
2406.25,-0.03709583,-0.37843421
2410.15625,-0.01006373,-0.38940495
2414.0625,-0.00682198,-0.37742397
2417.96875,-0.01284245,-0.34510335
2421.875,-0.00598129,-0.31168205
2425.78125,0.01085026,-0.30053446
2429.6875,-0.01359109,-0.32195130
2433.59375,-0.00328989,-0.36472294
2437.5,-0.01853216,-0.40502432
2441.40625,-0.02816733,-0.42419973
2445.3125,-0.02580421,-0.42077002
2449.21875,-0.00300555,-0.40685645
2453.125,-0.00901351,-0.39195082
2457.03125,-0.02964374,-0.37368771
2460.9375,-0.00812382,-0.34852538
2464.84375,-0.00375480,-0.32553729
2468.75,-0.00381616,-0.32103428
2472.65625,0.00573413,-0.33916053
2476.5625,-0.02262950,-0.36163050
2480.46875,-0.01312659,-0.35973683
2484.375,-0.01032640,-0.31853670
2488.28125,0.00960718,-0.24897560
2492.1875,0.02995572,-0.17548980
2496.09375,0.01656505,-0.11376009
2500.0,0.03435096,-0.06229497
2503.90625,0.04970148,-0.01081246
2507.8125,0.04319805,0.04960283
2511.71875,0.06760018,0.12126452
2515.625,0.06517538,0.19625261
2519.53125,0.09520888,0.25763524
2523.4375,0.09667809,0.29117674
2527.34375,0.07840109,0.29793388
2531.25,0.07886434,0.29039773
2535.15625,0.10643209,0.27633837
2539.0625,0.07070192,0.25276929
2542.96875,0.08954888,0.21562365
2546.875,0.06359874,0.16860600
2550.78125,0.04620502,0.11821291
2554.6875,0.07146605,0.06250142
2558.59375,0.04649132,-0.00712087
2562.5,0.01957069,-0.09060410
2566.40625,0.02035280,-0.17258763
2570.3125,0.00651366,-0.23371378
2574.21875,-0.00318881,-0.26642650
2578.125,0.00129889,-0.28081107
2582.03125,0.01088924,-0.29582280
2585.9375,-0.02289950,-0.32390565
2589.84375,-0.00295453,-0.36415407
2593.75,-0.02850408,-0.40689886
2597.65625,-0.01357600,-0.43963793
2601.5625,-0.03120468,-0.45078182
2605.46875,-0.03076444,-0.43603155
2609.375,-0.02362483,-0.40507218
2613.28125,-0.00397327,-0.37710962
2617.1875,-0.00624561,-0.36370385
2621.09375,-0.01827218,-0.35793003
2625.0,-0.02114700,-0.34689417
2628.90625,-0.01770515,-0.33556122
2632.8125,0.01047177,-0.35214517
2636.71875,-0.02775675,-0.42585155
2640.625,-0.04798380,-0.55959100
2644.53125,-0.07084277,-0.71874654
2648.4375,-0.08339236,-0.83133531
2652.34375,-0.06691415,-0.79014444
2656.25,-0.02166334,-0.46680960
2660.15625,0.04636363,0.24470240
2664.0625,0.26666987,1.36298037
2667.96875,0.46230114,2.77254939
2671.875,0.68618995,4.23113489
2675.78125,0.91647953,5.43382645
2679.6875,0.98121828,6.11033440
2683.59375,0.98760438,6.11198473
2687.5,0.90536577,5.45003939
2691.40625,0.69686252,4.27986145
2695.3125,0.47383934,2.84392309
2699.21875,0.25034934,1.39251232
2703.125,0.06614266,0.11673845
2707.03125,-0.09024692,-0.87588900
2710.9375,-0.19921029,-1.54852402
2714.84375,-0.26182643,-1.91273117
2718.75,-0.25478756,-2.01258922
2722.65625,-0.26508576,-1.91211534
2726.5625,-0.21249099,-1.68307543
2730.46875,-0.18268839,-1.39582741
2734.375,-0.12714086,-1.11251867
2738.28125,-0.08667242,-0.87818199
2742.1875,-0.06663528,-0.71051174
2746.09375,-0.06221234,-0.59838915
2750.0,-0.03068093,-0.51616055
2753.90625,-0.03330451,-0.44479707
2757.8125,-0.01649749,-0.38479525
2761.71875,-0.02333096,-0.35281962
2765.625,0.01161728,-0.36162081
2769.53125,-0.02200887,-0.39634818
2773.4375,-0.03766530,-0.41533366
2777.34375,-0.02449020,-0.38528088
2781.25,-0.01136045,-0.31648734
2785.15625,0.02242358,-0.25622451
2789.0625,0.00747963,-0.24491401
2792.96875,-0.01464263,-0.28098571
2796.875,-0.00523333,-0.32680756
2800.78125,-0.01725335,-0.34302720
2804.6875,-0.01743648,-0.31789932
2808.59375,0.01484607,-0.27011898
2812.5,0.01232156,-0.22546725
2816.40625,0.00258183,-0.19190387
2820.3125,0.00785817,-0.16084407
2824.21875,0.02706496,-0.12701266
2828.125,0.03610649,-0.09493219
2832.03125,0.02485410,-0.06692647
2835.9375,0.02112310,-0.03723521
2839.84375,0.06049119,0.00058173
2843.75,0.04927525,0.05071320
2847.65625,0.04518283,0.11866169
2851.5625,0.07465869,0.20613389
2855.46875,0.08975226,0.30206198
2859.375,0.10955196,0.38790768
2863.28125,0.10387480,0.45392871
2867.1875,0.12401968,0.50693882
2871.09375,0.11717015,0.56247050
2875.0,0.15008035,0.63143188
2878.90625,0.13787264,0.71320838
2882.8125,0.17578107,0.79894465
2886.71875,0.18226939,0.88087577
2890.625,0.17329031,0.95734787
2894.53125,0.19504377,1.02735221
2898.4375,0.23303097,1.08674908
2902.34375,0.20984653,1.13703465
2906.25,0.21148612,1.18982983
2910.15625,0.23566335,1.25277603
2914.0625,0.24781470,1.31713486
2917.96875,0.26115653,1.36734891
2921.875,0.25369710,1.39826608
2925.78125,0.25269133,1.41644645
2929.6875,0.25694436,1.42687476
2933.59375,0.26913711,1.42503560
2937.5,0.25629911,1.40424287
2941.40625,0.26244783,1.36749101
2945.3125,0.23005237,1.32848728
2949.21875,0.24191016,1.29980636
2953.125,0.23860835,1.28117490
2957.03125,0.24446169,1.26119876
2960.9375,0.22884829,1.22947407
2964.84375,0.21630454,1.18397820
2968.75,0.21644843,1.12703311
2972.65625,0.19451663,1.05885637
2976.5625,0.21902873,0.97974026
2980.46875,0.15827490,0.89668864
2984.375,0.15880057,0.81937820
2988.28125,0.16751158,0.74733841
2992.1875,0.14271067,0.66924202
2996.09375,0.12521413,0.57758665
3000.0,0.12205538,0.47931853
3003.90625,0.09299877,0.39180917
3007.8125,0.08924846,0.32956642
3011.71875,0.07966506,0.29210544
3015.625,0.09122956,0.26314864
3019.53125,0.06255829,0.22151132
3023.4375,0.07512555,0.15344784
3027.34375,0.04176955,0.05997342
3031.25,0.03798443,-0.04155845
3035.15625,0.00749900,-0.12452147
3039.0625,0.02957355,-0.16842040
3042.96875,-0.00741668,-0.17351100
3046.875,0.01968884,-0.16375020
3050.78125,0.01902270,-0.17234612
3054.6875,0.00813732,-0.21715027
3058.59375,-0.01285099,-0.28717980
3062.5,-0.00662481,-0.35260001
3066.40625,-0.03787308,-0.38688678
3070.3125,-0.01679005,-0.38330603
3074.21875,-0.00720690,-0.35558689
3078.125,-0.01167341,-0.32409051
3082.03125,-0.01760973,-0.30227673
3085.9375,0.00144578,-0.29524016
3089.84375,-0.01113453,-0.30441666
3093.75,-0.01622625,-0.32970816
3097.65625,-0.01461267,-0.36915016
3101.5625,-0.03035744,-0.41714630
3105.46875,-0.02013233,-0.46155891
3109.375,-0.04204459,-0.48488426
3113.28125,-0.05205710,-0.47535765
3117.1875,-0.02323345,-0.44063789
3121.09375,-0.00801321,-0.40515390
3125.0,-0.03266938,-0.38927481
3128.90625,-0.01477979,-0.39388609
3132.8125,-0.04069094,-0.40586287
3136.71875,-0.01994896,-0.41360542
3140.625,-0.01944772,-0.41430229
3144.53125,-0.01976278,-0.40816775
3148.4375,-0.03712491,-0.39196935
3152.34375,-0.01302397,-0.36314797
3156.25,-0.01126591,-0.32788980
3160.15625,-0.01309103,-0.30072236
3164.0625,0.00789516,-0.29490477
3167.96875,-0.02381257,-0.31271407
3171.875,-0.01716339,-0.34468675
3175.78125,-0.00473160,-0.37651622
3179.6875,-0.03558312,-0.39560038
3183.59375,-0.03037076,-0.39693168
3187.5,-0.00600764,-0.38737044
3191.40625,-0.02340873,-0.37979481
3195.3125,-0.02886801,-0.38142255
3199.21875,-0.01319450,-0.39100388
3203.125,-0.03547762,-0.40507242
3207.03125,-0.01729273,-0.42237207
3210.9375,-0.03151935,-0.44109190
3214.84375,-0.02681845,-0.45355442
3218.75,-0.05099788,-0.44934914
3222.65625,-0.01630577,-0.42728627
3226.5625,-0.01584497,-0.39855209
3230.46875,-0.02093283,-0.37364215
3234.375,-0.02676884,-0.35280955
3238.28125,-0.01587515,-0.33433259
3242.1875,-0.00082138,-0.32437649
3246.09375,-0.00797216,-0.33031034
3250.0,-0.02707666,-0.34821242
3253.90625,-0.01549672,-0.36468774
3257.8125,-0.02140633,-0.37008473
3261.71875,-0.01178804,-0.36587965
3265.625,-0.02793011,-0.36087355
3269.53125,-0.00020650,-0.36236149
3273.4375,-0.02754686,-0.36931434
3277.34375,-0.03011070,-0.37464195
3281.25,-0.01378406,-0.37444779
3285.15625,0.00190671,-0.36947945
3289.0625,-0.03812456,-0.35789326
3292.96875,-0.01704102,-0.33776769
3296.875,-0.01009748,-0.31790781
3300.78125,0.01492318,-0.31344923
3304.6875,-0.03567871,-0.32794249
3308.59375,-0.00388427,-0.34898502
3312.5,-0.02624955,-0.36271182
3316.40625,-0.02134815,-0.36687508
3320.3125,-0.00578453,-0.36949444
3324.21875,-0.01658414,-0.37720507
3328.125,-0.03361745,-0.38732213
3332.03125,-0.01977747,-0.39354491
3335.9375,-0.02175504,-0.39588439
3339.84375,-0.01488173,-0.39940709
3343.75,-0.02835988,-0.40492114
3347.65625,-0.02533782,-0.40608615
3351.5625,-0.02102670,-0.39603794
3355.46875,-0.01661540,-0.37429169
3359.375,-0.01891852,-0.34819597
3363.28125,-0.01163181,-0.33080441
3367.1875,-0.00904516,-0.33552217
3371.09375,-0.01276819,-0.36635011
3375.0,-0.02461782,-0.41006696
3378.90625,-0.03532017,-0.44130024
3382.8125,-0.02730638,-0.44067818
3386.71875,-0.02481024,-0.41095728
3390.625,-0.01971585,-0.37581447
3394.53125,-0.00558555,-0.36102116
3398.4375,-0.01754865,-0.37361443
3402.34375,-0.02810566,-0.39893454
3406.25,-0.03246220,-0.41881466
3410.15625,-0.01804290,-0.42893630
3414.0625,-0.01966446,-0.43465725
3417.96875,-0.02937205,-0.43580014
3421.875,-0.03630062,-0.42587844
3425.78125,-0.02064949,-0.40617675
3429.6875,-0.01176674,-0.39028063
3433.59375,-0.01387041,-0.38984430
3437.5,-0.03381131,-0.40201262
3441.40625,-0.02152151,-0.41501945
3445.3125,-0.01853996,-0.42055765
3449.21875,-0.02776937,-0.41668200
3453.125,-0.01710985,-0.40402275
3457.03125,-0.02370609,-0.38395303
3460.9375,-0.00481102,-0.35869464
3464.84375,-0.02368151,-0.33210006
3468.75,0.00376250,-0.31110007
3472.65625,-0.00338742,-0.30331215
3476.5625,-0.01073256,-0.31011692
3480.46875,-0.01201173,-0.32438135
3484.375,0.00196587,-0.33635709
3488.28125,-0.01909801,-0.34011209
3492.1875,-0.00954640,-0.33674982
3496.09375,-0.01742071,-0.33542442
3500.0,0.00411800,-0.34833136
3503.90625,-0.01781905,-0.37856692
3507.8125,-0.01714027,-0.41263309
3511.71875,-0.04572828,-0.43032163
3515.625,-0.01098601,-0.42466795
3519.53125,-0.01817959,-0.40830383
3523.4375,-0.00694283,-0.39742362
3527.34375,-0.03126067,-0.39427122
3531.25,-0.02395925,-0.38983798
3535.15625,0.00238983,-0.37846878
3539.0625,-0.02229830,-0.36274835
3542.96875,-0.01037014,-0.34736642
3546.875,-0.00126795,-0.33448142
3550.78125,-0.01061129,-0.32427418
3554.6875,-0.00985508,-0.31769603
3558.59375,0.00531207,-0.31733015
3562.5,-0.01374582,-0.32300517
3566.40625,0.00206851,-0.32707509
3570.3125,-0.00475492,-0.31718835
3574.21875,-0.01084488,-0.28576359
3578.125,0.00849837,-0.23788883
3582.03125,0.03025412,-0.18805066
3585.9375,0.01963834,-0.14630502
3589.84375,0.02165479,-0.10944992
3593.75,0.03663482,-0.06677401
3597.65625,0.04279661,-0.01043135
3601.5625,0.06424867,0.06044571
3605.46875,0.05508825,0.13993777
3609.375,0.08596536,0.21598767
3613.28125,0.08663084,0.27407908
3617.1875,0.10095145,0.30434626
3621.09375,0.08305363,0.30548388
3625.0,0.09977350,0.28237727
3628.90625,0.07399461,0.24271868
3632.8125,0.08852281,0.19641422
3636.71875,0.07198659,0.15508662
3640.625,0.05324346,0.12704353
3644.53125,0.06726151,0.10887439
3648.4375,0.06591543,0.08446980
3652.34375,0.06068278,0.03786311
3656.25,0.03587795,-0.03278504
3660.15625,0.01957244,-0.11590498
3664.0625,0.03319756,-0.19755551
3667.96875,-0.00189362,-0.26764557
3671.875,0.00634058,-0.31915072
3675.78125,-0.01699572,-0.34821990
3679.6875,-0.00044730,-0.35628247
3683.59375,-0.00126653,-0.34964368
3687.5,-0.01080841,-0.33672461
3691.40625,0.00557606,-0.32635471
3695.3125,-0.00925494,-0.32704294
3699.21875,-0.00244845,-0.34500355
3703.125,-0.00193942,-0.37973362
3707.03125,-0.01003778,-0.41934693
3710.9375,-0.03950609,-0.44500175
3714.84375,-0.01405808,-0.44777066
3718.75,-0.00831943,-0.44014820
3722.65625,-0.02566097,-0.44659126
3726.5625,-0.01987790,-0.48570648
3730.46875,-0.05115266,-0.56284428
3734.375,-0.04350639,-0.66860014
3738.28125,-0.06034683,-0.76687765
3742.1875,-0.06485818,-0.77554452
3746.09375,-0.04267423,-0.56744564
3750.0,0.05343862,-0.01204217
3753.90625,0.18479499,0.95602280
3757.8125,0.39541748,2.27789330
3761.71875,0.64075965,3.75563669
3765.625,0.83888263,5.09530449
3769.53125,0.98594916,5.99172926
3773.4375,1.02387679,6.22296524
3777.34375,0.95560342,5.72426844
3781.25,0.75861627,4.61263275
3785.15625,0.53222263,3.14269829
3789.0625,0.29770845,1.61133325
3792.96875,0.08316267,0.26186043
3796.875,-0.05075750,-0.76793593
3800.78125,-0.18406656,-1.44625974
3804.6875,-0.23000646,-1.81583476
3808.59375,-0.22805025,-1.95016634
3812.5,-0.23749651,-1.91266215
3816.40625,-0.23800498,-1.74260199
3820.3125,-0.18426490,-1.47747087
3824.21875,-0.11030727,-1.17686951
3828.125,-0.09517103,-0.91012615
3832.03125,-0.03817271,-0.72036517
3835.9375,-0.04426515,-0.60541630
3839.84375,-0.05176124,-0.53386986
3843.75,-0.00995395,-0.47936600
3847.65625,-0.01066004,-0.43895212
3851.5625,-0.00148158,-0.42099819
3855.46875,-0.01574340,-0.42374668
3859.375,-0.01476702,-0.42980233
3863.28125,-0.00791117,-0.41822818
3867.1875,-0.01247416,-0.38096118
3871.09375,0.01187464,-0.33047271
3875.0,0.01648617,-0.29145339
3878.90625,0.00214380,-0.28209922
3882.8125,0.01805192,-0.30095544
3886.71875,0.00061191,-0.32803571
3890.625,0.00784198,-0.33681348
3894.53125,-0.00551310,-0.31048143
3898.4375,0.03306271,-0.25290504
3902.34375,0.01539108,-0.18524963
3906.25,0.04133172,-0.13130705
3910.15625,0.04614225,-0.10260987
3914.0625,0.04288644,-0.09127916
3917.96875,0.04545958,-0.07556932
3921.875,0.03692092,-0.03725561
3925.78125,0.06696475,0.02247009
3929.6875,0.07191488,0.08452732
3933.59375,0.08633533,0.13087121
3937.5,0.08639494,0.16326401
3941.40625,0.07721174,0.20323561
3945.3125,0.08856909,0.27097592
3949.21875,0.12424872,0.36389512
3953.125,0.14395493,0.45986310
3957.03125,0.13276440,0.54096788
3960.9375,0.14689453,0.60793179
3964.84375,0.16369852,0.67192227
3968.75,0.17451404,0.74016577
3972.65625,0.18772699,0.81182003
3976.5625,0.19299515,0.88323206
3980.46875,0.21007445,0.95395374
3984.375,0.21213780,1.02690434
3988.28125,0.22830985,1.10227299
3992.1875,0.24766731,1.17295945
3996.09375,0.24935855,1.22877407
4000.0,0.24931559,1.26490402
4003.90625,0.26747644,1.28592479
4007.8125,0.25664285,1.30395198
4011.71875,0.26666665,1.33162570
4015.625,0.26528841,1.37099874
4019.53125,0.28323215,1.40822220
4023.4375,0.28810915,1.42442787
4027.34375,0.27513522,1.41377306
4031.25,0.26656583,1.38691998
4035.15625,0.27934736,1.35729671
4039.0625,0.27180082,1.33015776
4042.96875,0.24378419,1.30342865
4046.875,0.26700237,1.27061093
4050.78125,0.25813591,1.22340930
4054.6875,0.23468822,1.15820801
4058.59375,0.22689918,1.08001721
4062.5,0.21580890,0.99815732
4066.40625,0.20007637,0.91920424
4070.3125,0.19941609,0.84330958
4074.21875,0.17366570,0.76505822
4078.125,0.16673772,0.67814034
4082.03125,0.16016114,0.58178478
4085.9375,0.12636077,0.48419410
4089.84375,0.12884034,0.39802396
4093.75,0.10870388,0.33069924
4097.65625,0.10729844,0.27881840
4101.5625,0.09625982,0.23095991
4105.46875,0.09013022,0.17606895
4109.375,0.08481634,0.11196128
4113.28125,0.06213645,0.04726972
4117.1875,0.06981201,-0.00627178
4121.09375,0.03832004,-0.04496694
4125.0,0.06324869,-0.07639931
4128.90625,0.04491283,-0.11017957
4132.8125,0.04975095,-0.14626020
4136.71875,0.01235206,-0.17643887
4140.625,0.04734920,-0.19739518
4144.53125,0.02337958,-0.21639022
4148.4375,0.02744594,-0.24313135
4152.34375,0.02174938,-0.28019556
4156.25,0.01701500,-0.31956816
4160.15625,0.01001061,-0.34495747
4164.0625,-0.01032382,-0.34300932
4167.96875,0.02705657,-0.31789225
4171.875,0.03320378,-0.28998464
4175.78125,0.00245072,-0.27703935
4179.6875,0.02499275,-0.28225741
4183.59375,0.01948398,-0.29974538
4187.5,0.01188098,-0.32289651
4191.40625,0.00559833,-0.34727085
4195.3125,0.01403476,-0.37098816
4199.21875,-0.00111334,-0.39320976
4203.125,0.00245598,-0.41114235
4207.03125,-0.00007006,-0.41883683
4210.9375,-0.00268428,-0.41056812
4214.84375,-0.00038253,-0.38868162
4218.75,0.01344613,-0.36772224
4222.65625,0.01431392,-0.36449924
4226.5625,-0.00339625,-0.38130292
4230.46875,0.00550822,-0.40292412
4234.375,0.00412162,-0.41199189
4238.28125,-0.01435230,-0.40558454
4242.1875,0.02010827,-0.39679924
4246.09375,-0.00640955,-0.40011436
4250.0,0.02052694,-0.41479611
4253.90625,-0.02095870,-0.42435345
4257.8125,-0.00219908,-0.41358826
4261.71875,0.01647087,-0.38356867
4265.625,0.01272069,-0.34793368
4269.53125,0.01365779,-0.31980577
4273.4375,0.00722048,-0.30713803
4277.34375,0.03258687,-0.31413308
4281.25,0.00881917,-0.33770356
4285.15625,0.01223217,-0.36403769
4289.0625,-0.00040768,-0.37664118
4292.96875,-0.00114881,-0.37145370
4296.875,0.02510078,-0.36123416
4300.78125,0.02530004,-0.36020344
4304.6875,-0.01287546,-0.36642233
4308.59375,0.00233189,-0.36704239
4312.5,0.02422693,-0.35890660
4316.40625,0.01037696,-0.35373050
4320.3125,0.02118871,-0.36215258
4324.21875,-0.01215235,-0.38011476
4328.125,0.01195556,-0.39338681
4332.03125,0.01005380,-0.39166397
4335.9375,0.01078835,-0.37616596
4339.84375,0.00228380,-0.35740659
4343.75,0.00977246,-0.34866050
4347.65625,0.03177393,-0.35676488
4351.5625,-0.00252385,-0.37394691
4355.46875,0.00976240,-0.38123006
4359.375,0.00698851,-0.36459988
4363.28125,0.00757413,-0.32951871
4367.1875,0.03274010,-0.29956189
4371.09375,0.03015973,-0.29745916
4375.0,0.00669264,-0.32393360
4378.90625,0.01767619,-0.35652992
4382.8125,0.00146799,-0.37047827
4386.71875,0.01536649,-0.36018753
4390.625,0.00707497,-0.34271124
4394.53125,0.02956790,-0.34199136
4398.4375,0.01730208,-0.36647052
4402.34375,-0.00086219,-0.39972708
4406.25,-0.00973798,-0.41629189
4410.15625,-0.00145908,-0.40880784
4414.0625,0.03779478,-0.39491323
4417.96875,0.00048495,-0.39446014
4421.875,-0.00480855,-0.40658498
4425.78125,0.00426730,-0.41386545
4429.6875,0.00661912,-0.40264332
4433.59375,0.02015478,-0.37456101
4437.5,0.00356825,-0.34285975
4441.40625,0.03308427,-0.32079774
4445.3125,0.01309125,-0.31168449
4449.21875,0.01677124,-0.30978954
4453.125,0.03046176,-0.31075144
4457.03125,0.01548281,-0.31708491
4460.9375,0.01731682,-0.33249232
4464.84375,0.02128966,-0.35466084
4468.75,0.00476090,-0.37536168
4472.65625,0.00717912,-0.38681319
4476.5625,0.02202152,-0.38669249
4480.46875,0.00439156,-0.37693575
4484.375,0.00701185,-0.36158898
4488.28125,0.02537390,-0.34692132
4492.1875,0.02135720,-0.33783850
4496.09375,0.01835853,-0.33331004
4500.0,0.00050323,-0.33145431
4503.90625,0.03832205,-0.33712828
4507.8125,0.01263598,-0.35533771
4511.71875,0.01070223,-0.37847698
4515.625,0.01243900,-0.38960087
4519.53125,0.00450176,-0.37980053
4523.4375,0.01145462,-0.35775518
4527.34375,0.03906200,-0.34102458
4531.25,-0.00337537,-0.33982506
4535.15625,0.04206550,-0.34936902
4539.0625,0.00347637,-0.35472140
4542.96875,0.00354974,-0.34382933
4546.875,0.03165996,-0.32103226
4550.78125,0.03839345,-0.30595514
4554.6875,0.01041798,-0.31489915
4558.59375,0.02534117,-0.34594160
4562.5,0.00589431,-0.38244027
4566.40625,0.01100176,-0.40681621
4570.3125,0.00622956,-0.41165322
4574.21875,0.01695536,-0.40152192
4578.125,0.00751566,-0.38660222
4582.03125,0.01698820,-0.37569219
4585.9375,0.01120868,-0.37367654
4589.84375,0.01539707,-0.38140208
4593.75,0.01624392,-0.39516953
4597.65625,0.00724985,-0.40704399
4601.5625,0.01076840,-0.40852135
4605.46875,0.00151145,-0.39686340
4609.375,0.02156938,-0.37881932
4613.28125,0.02446350,-0.36638924
4617.1875,0.01114145,-0.36742032
4621.09375,0.01217455,-0.38092160
4625.0,0.00908573,-0.40081745
4628.90625,0.01038913,-0.42123044
4632.8125,0.01791823,-0.43674469
4636.71875,-0.00385574,-0.44036776
4640.625,-0.00046156,-0.42661703
4644.53125,0.01873736,-0.39774776
4648.4375,0.02978187,-0.36201668
4652.34375,0.01237494,-0.32474080
4656.25,0.03265641,-0.28576371
4660.15625,0.03746030,-0.24589603
4664.0625,0.03128762,-0.21184315
4667.96875,0.06173123,-0.19276665
4671.875,0.03945406,-0.18995318
4675.78125,0.04955655,-0.18930216
4679.6875,0.04232464,-0.16816396
4683.59375,0.05249115,-0.11340409
4687.5,0.07547391,-0.03258302
4691.40625,0.09066396,0.05345166
4695.3125,0.09028839,0.12687260
4699.21875,0.10041363,0.18014491
4703.125,0.10920496,0.21280637
4707.03125,0.12205791,0.22917971
4710.9375,0.09538168,0.23738806
4714.84375,0.12581733,0.24247161
4718.75,0.10420974,0.23988055
4722.65625,0.11599781,0.22072691
4726.5625,0.11334772,0.18351766
4730.46875,0.07927564,0.13629264
4734.375,0.10070942,0.08592241
4738.28125,0.07865997,0.02986987
4742.1875,0.06201870,-0.03836929
4746.09375,0.08089013,-0.11753702
4750.0,0.03585687,-0.19368941
4753.90625,0.02554429,-0.24934936
4757.8125,0.03964587,-0.28023556
4761.71875,0.03735295,-0.29935408
4765.625,0.02528638,-0.32184049
4769.53125,0.03158536,-0.34997806
4773.4375,-0.00613430,-0.37581369
4777.34375,0.03244355,-0.39439926
4781.25,0.02134397,-0.40777823
4785.15625,0.00540252,-0.41653651
4789.0625,0.00343184,-0.41693580
4792.96875,0.02313554,-0.40897328
4796.875,0.02214561,-0.39887869
4800.78125,0.00932175,-0.39137819
4804.6875,0.01826473,-0.38610569
4808.59375,0.01648667,-0.38351268
4812.5,0.02655909,-0.39105779
4816.40625,-0.00336813,-0.42380506
4820.3125,0.00894567,-0.49883029
4824.21875,-0.01870708,-0.62051672
4828.125,-0.03747407,-0.75869930
4832.03125,-0.03943096,-0.83224249
4835.9375,-0.03037761,-0.71277672
4839.84375,0.02880350,-0.25978008
4843.75,0.15899549,0.61454463
4847.65625,0.38278472,1.87972105
4851.5625,0.57732224,3.36197066
4855.46875,0.83239132,4.77741861
4859.375,0.97673559,5.81204844
4863.28125,1.06504655,6.22123909
4867.1875,0.99021041,5.91082382
4871.09375,0.85102952,4.96360064
4875.0,0.63105607,3.60089612
4878.90625,0.40259007,2.10072327
4882.8125,0.17475484,0.70979905
4886.71875,0.01519924,-0.41485405
4890.625,-0.09078167,-1.21452975
4894.53125,-0.19881307,-1.69860721
4898.4375,-0.20294011,-1.90950227
4902.34375,-0.22928633,-1.90407515
4906.25,-0.18284725,-1.74691510
4910.15625,-0.16291223,-1.50498199
4914.0625,-0.09926850,-1.23899245
4917.96875,-0.07976837,-0.99274570
4921.875,-0.04927847,-0.78751796
4925.78125,-0.00557810,-0.62610453
4929.6875,-0.00400035,-0.50232506
4933.59375,0.00711821,-0.41133887
4937.5,0.02721570,-0.35616457
4941.40625,0.03635570,-0.34144771
4945.3125,0.03151383,-0.35756251
4949.21875,-0.00042711,-0.37727982
4953.125,0.02759022,-0.37471721
4957.03125,0.02812243,-0.34452203
4960.9375,0.03619570,-0.29996604
4964.84375,0.03985149,-0.25824857
4968.75,0.04105578,-0.23159169
4972.65625,0.03649447,-0.22720069
4976.5625,0.05716477,-0.24663636
4980.46875,0.03351421,-0.27997065
4984.375,0.03013489,-0.30437589
4988.28125,0.02625742,-0.29716724
4992.1875,0.04046772,-0.25386286
4996.09375,0.05856867,-0.19154221
5000.0,0.05421051,-0.13334988
5003.90625,0.07591947,-0.08970492
5007.8125,0.06474091,-0.05368648
5011.71875,0.06473080,-0.01441538
5015.625,0.09640270,0.02635997
5019.53125,0.08333881,0.05561420
5023.4375,0.10769895,0.06865215
5027.34375,0.07587510,0.08193139
5031.25,0.09649894,0.12108556
5035.15625,0.11588098,0.19747759
5039.0625,0.12019822,0.29895908
5042.96875,0.14659236,0.40066832
5046.875,0.15595715,0.48310068
5050.78125,0.16937785,0.54528826
5054.6875,0.16798367,0.60499471
5058.59375,0.18023920,0.68303764
5062.5,0.19477144,0.78289515
5066.40625,0.23231220,0.88595134
5070.3125,0.22254655,0.96885794
5074.21875,0.24814540,1.02510560
5078.125,0.23794797,1.06874561
5082.03125,0.24071351,1.11766803
5085.9375,0.26840889,1.17535663
5089.84375,0.28666973,1.23220408
5093.75,0.26227441,1.28163362
5097.65625,0.28187099,1.32587361
5101.5625,0.30061829,1.36703968
5105.46875,0.29343137,1.40235007
5109.375,0.29516971,1.42772806
5113.28125,0.30876800,1.43968892
5117.1875,0.30085725,1.43577325
5121.09375,0.29906234,1.41707122
5125.0,0.28749055,1.38769805
5128.90625,0.29208949,1.34943295
5132.8125,0.27676851,1.29999769
5136.71875,0.29272610,1.23996329
5140.625,0.23050050,1.17769122
5144.53125,0.25975528,1.12103629
5148.4375,0.25720030,1.06758666
5152.34375,0.22640756,1.01079941
5156.25,0.23372573,0.95211989
5160.15625,0.20640075,0.89918393
5164.0625,0.21141239,0.85281914
5167.96875,0.21082412,0.80033714
5171.875,0.17606094,0.72341383
5175.78125,0.19359633,0.61422807
5179.6875,0.15483153,0.48725358
5183.59375,0.11457308,0.37333408
5187.5,0.12760800,0.29519403
5191.40625,0.12338417,0.24891414
5195.3125,0.11439310,0.21304038
5199.21875,0.10191357,0.17157049
5203.125,0.09772601,0.12438911
5207.03125,0.08248304,0.07999919
5210.9375,0.09303056,0.04273603
5214.84375,0.07384469,0.00593848
5218.75,0.06181912,-0.04498971
5222.65625,0.07962254,-0.12035108
5226.5625,0.03697174,-0.21180469
5230.46875,0.02494677,-0.29181772
5234.375,0.03508412,-0.33269879
5238.28125,0.00894017,-0.32773039
5242.1875,0.04233039,-0.29629341
5246.09375,0.02976310,-0.27080047
5250.0,0.05618854,-0.27302340
5253.90625,0.01751955,-0.29722765
5257.8125,0.01255785,-0.31947055
5261.71875,0.03342060,-0.32593510
5265.625,0.03152411,-0.32612306
5269.53125,0.03074809,-0.33549294
5273.4375,0.01478482,-0.35332936
5277.34375,0.01389771,-0.36437389
5281.25,0.02679822,-0.35835934
5285.15625,0.01778431,-0.34188098
5289.0625,0.02608169,-0.33167329
5292.96875,0.03227350,-0.33884692
5296.875,0.01502769,-0.35815212
5300.78125,0.02501810,-0.37126192
5304.6875,-0.00512706,-0.36361244
5308.59375,0.03688794,-0.34042785
5312.5,0.03595110,-0.32295272
5316.40625,0.01966243,-0.32660088
5320.3125,0.01495029,-0.34687912
5324.21875,0.01932789,-0.36765674
5328.125,0.02064105,-0.37709448
5332.03125,0.01680314,-0.37424877
5335.9375,0.00985402,-0.36684999
5339.84375,0.02106312,-0.36597082
5343.75,0.03210542,-0.37833211
5347.65625,-0.00551156,-0.40071014
5351.5625,0.01132113,-0.42409548
5355.46875,0.00751037,-0.44234005
5359.375,0.00357036,-0.45287332
5363.28125,0.01682820,-0.45123652
5367.1875,-0.00936791,-0.43117055
5371.09375,0.01179914,-0.39293209
5375.0,0.02691247,-0.34905964
5378.90625,0.02740843,-0.31758785
5382.8125,0.02471122,-0.30869287
5386.71875,0.02059458,-0.31829381
5390.625,0.02638782,-0.33190507
5394.53125,0.01834927,-0.33399299
5398.4375,0.02234433,-0.31863904
5402.34375,0.02523488,-0.29544106
5406.25,0.03437502,-0.28364038
5410.15625,0.02890004,-0.29669088
5414.0625,0.02715523,-0.33053410
5417.96875,-0.00143338,-0.36720771
5421.875,0.01962969,-0.39014420
5425.78125,0.01830164,-0.39473167
5429.6875,0.00977184,-0.38615260
5433.59375,0.00369517,-0.37390080
5437.5,0.02380564,-0.36917198
5441.40625,0.01684364,-0.37916952
5445.3125,0.01212219,-0.39926916
5449.21875,0.00248553,-0.41391459
5453.125,0.00649664,-0.40828165
5457.03125,0.00909605,-0.38109860
5460.9375,0.01892242,-0.34853891
5464.84375,0.03478293,-0.33331451
5468.75,0.01736054,-0.34479755
5472.65625,-0.00901739,-0.37158480
5476.5625,0.01985531,-0.39660063
5480.46875,0.02013300,-0.41230538
5484.375,0.00225756,-0.41647717
5488.28125,-0.00155936,-0.40424931
5492.1875,0.01426873,-0.37438437
5496.09375,0.02297632,-0.33844841
5500.0,0.01882669,-0.31589845
5503.90625,0.03240381,-0.31827372
5507.8125,0.01197040,-0.33836070
5511.71875,0.01356561,-0.35655388
5515.625,0.00285804,-0.36095002
5519.53125,0.02483556,-0.36046615
5523.4375,0.01551169,-0.37402821
5527.34375,0.01955285,-0.40595484
5531.25,-0.01442342,-0.43650657
5535.15625,-0.00875751,-0.44102749
5539.0625,0.01682327,-0.41605851
5542.96875,0.01959103,-0.38161394
5546.875,0.00709486,-0.36054212
5550.78125,0.00833802,-0.36138010
5554.6875,0.02056998,-0.37718010
5558.59375,0.00200766,-0.39345902
5562.5,0.01182987,-0.39942032
5566.40625,0.00007816,-0.39748791
5570.3125,0.00432697,-0.40176597
5574.21875,0.02116977,-0.42304471
5578.125,-0.00969448,-0.45349520
5582.03125,0.00213002,-0.46869943
5585.9375,-0.01887279,-0.44830486
5589.84375,0.01472718,-0.39592305
5593.75,0.01318807,-0.33827677
5597.65625,0.04529144,-0.30318096
5601.5625,0.00588860,-0.29764295
5605.46875,0.01329644,-0.30887359
5609.375,0.02357067,-0.32381624
5613.28125,0.01858076,-0.34087783
5617.1875,0.00693838,-0.36345255
5621.09375,0.02509920,-0.38970441
5625.0,-0.02249658,-0.41243839
5628.90625,0.01583080,-0.42708668
5632.8125,0.00102208,-0.43484858
5636.71875,0.00048019,-0.43615749
5640.625,-0.00289050,-0.42696834
5644.53125,0.01356365,-0.40506655
5648.4375,-0.00298972,-0.37661937
5652.34375,0.01106524,-0.35493323
5656.25,0.02989712,-0.35228163
5660.15625,0.00033213,-0.36989108
5664.0625,0.01006394,-0.39517233
5667.96875,0.00149442,-0.41009089
5671.875,-0.00726210,-0.40411684
5675.78125,0.01540002,-0.38266963
5679.6875,0.02302317,-0.36324367
5683.59375,0.00015821,-0.36052716
5687.5,0.00869388,-0.37554884
5691.40625,0.00623946,-0.39808732
5695.3125,-0.00107810,-0.41480950
5699.21875,0.01762893,-0.41491508
5703.125,-0.01645905,-0.39429402
5707.03125,0.02541109,-0.36013672
5710.9375,0.00089601,-0.33106881
5714.84375,0.02850706,-0.32728964
5718.75,0.01334766,-0.35520723
5722.65625,0.00643881,-0.39961973
5726.5625,-0.01263508,-0.43337125
5730.46875,-0.00797265,-0.43828049
5734.375,0.01655057,-0.41677928
5738.28125,0.00048878,-0.38379180
5742.1875,0.02133684,-0.35211661
5746.09375,-0.00286003,-0.32732293
5750.0,0.02809918,-0.31026691
5753.90625,0.01840748,-0.29747900
5757.8125,0.02787643,-0.28014624
5761.71875,0.01793589,-0.24947511
5765.625,0.03000611,-0.20582950
5769.53125,0.04879904,-0.15827994
5773.4375,0.05313693,-0.11179471
5777.34375,0.04869433,-0.05868612
5781.25,0.07207853,0.01205253
5785.15625,0.06090381,0.09722179
5789.0625,0.11133754,0.17512004
5792.96875,0.10104801,0.22180586
5796.875,0.09367277,0.23079397
5800.78125,0.09937585,0.21454023
5804.6875,0.09171037,0.19043347
5808.59375,0.10361398,0.17012538
5812.5,0.06581724,0.15660892
5816.40625,0.09267881,0.14256522
5820.3125,0.10576192,0.11432042
5824.21875,0.05144301,0.06404600
5828.125,0.06931113,-0.00390033
5832.03125,0.05106628,-0.07823687
5835.9375,0.04636430,-0.14611197
5839.84375,0.02569861,-0.19601920
5843.75,0.04381931,-0.22319078
5847.65625,0.00973707,-0.23339364
5851.5625,0.03133566,-0.24100250
5855.46875,0.02797104,-0.26289687
5859.375,0.01408642,-0.30936167
5863.28125,0.01583228,-0.37518105
5867.1875,-0.01690680,-0.43805215
5871.09375,-0.00280984,-0.47010082
5875.0,-0.02603411,-0.45917568
5878.90625,0.01073695,-0.42233890
5882.8125,0.01652088,-0.39365336
5886.71875,-0.01583978,-0.39544004
5890.625,0.00437978,-0.42297533
5894.53125,-0.00134210,-0.45332554
5898.4375,-0.02229329,-0.46460062
5902.34375,-0.00571289,-0.45404175
5906.25,-0.00531414,-0.44527194
5910.15625,-0.00394639,-0.47406915
5914.0625,-0.03279431,-0.55950165
5917.96875,-0.04235800,-0.68037409
5921.875,-0.03921404,-0.76465124
5925.78125,-0.03756991,-0.69119984
5929.6875,-0.00551050,-0.31631315
5933.59375,0.12552343,0.46501216
5937.5,0.31673235,1.64927256
5941.40625,0.55073571,3.09322453
5945.3125,0.75529754,4.54093599
5949.21875,0.94569802,5.69161367
5953.125,1.03892124,6.28220224
5957.03125,1.03423727,6.16447639
5960.9375,0.89186144,5.35410261
5964.84375,0.68788892,4.02878952
5968.75,0.42814824,2.46989465
5972.65625,0.21236606,0.96970516
5976.5625,0.01471563,-0.25499618
5980.46875,-0.11081348,-1.10746753
5984.375,-0.18130551,-1.60190344
5988.28125,-0.21473071,-1.81607354
5992.1875,-0.22451052,-1.83819056
5996.09375,-0.21518622,-1.73593736
6000.0,-0.16162206,-1.55204248
6003.90625,-0.16241030,-1.31525111
6007.8125,-0.10646290,-1.05627763
6011.71875,-0.05277807,-0.81501019
6015.625,-0.03886806,-0.62812078
6019.53125,-0.02239613,-0.51053387
6023.4375,-0.00061620,-0.45221645
6027.34375,-0.01416642,-0.42930403
6031.25,-0.01007775,-0.41752499
6035.15625,-0.00402496,-0.40200302
6039.0625,0.02422534,-0.37879193
6042.96875,-0.01291131,-0.35015622
6046.875,-0.00389671,-0.32422826
6050.78125,0.03198219,-0.31519783
6054.6875,0.01036217,-0.33000064
6058.59375,0.00367993,-0.35401824
6062.5,-0.01417739,-0.36182761
6066.40625,0.01219799,-0.34375048
6070.3125,0.01195749,-0.31353268
6074.21875,0.02648930,-0.28887582
6078.125,0.00755987,-0.27164131
6082.03125,0.01288240,-0.25046650
6085.9375,0.03525418,-0.21735862
6089.84375,0.01752468,-0.17599407
6093.75,0.05346937,-0.13510768
6097.65625,0.03742985,-0.09741560
6101.5625,0.05071003,-0.05683279
6105.46875,0.04509456,-0.00755959
6109.375,0.08004151,0.04668465
6113.28125,0.06037667,0.09660169
6117.1875,0.09203423,0.13928346
6121.09375,0.07888020,0.18308118
6125.0,0.09968576,0.24083702
6128.90625,0.09461753,0.31877977
6132.8125,0.12523393,0.41103652
6136.71875,0.14611340,0.50447452
6140.625,0.13233294,0.58775455
6144.53125,0.17266318,0.65584618
6148.4375,0.16347955,0.71103609
6152.34375,0.16527297,0.76237720
6156.25,0.18934490,0.81950021
6160.15625,0.19228230,0.88501769
6164.0625,0.21184129,0.95596838
6167.96875,0.21372040,1.03100562
6171.875,0.21074657,1.11004424
6175.78125,0.25437856,1.18656003
6179.6875,0.25060466,1.24788272
6183.59375,0.25101346,1.28747141
6187.5,0.26890159,1.31388855
6191.40625,0.25000954,1.34477687
6195.3125,0.26761991,1.38994133
6199.21875,0.28148833,1.43865788
6203.125,0.29090744,1.46609509
6207.03125,0.27609533,1.45544589
6210.9375,0.28256649,1.41422701
6214.84375,0.24780472,1.36845613
6218.75,0.26434454,1.33989561
6222.65625,0.26938677,1.32930756
6226.5625,0.26809782,1.32177293
6230.46875,0.22967602,1.30109084
6234.375,0.25429752,1.25429094
6238.28125,0.25532249,1.17430604
6242.1875,0.21711974,1.07060385
6246.09375,0.18272689,0.96909392
6250.0,0.20015658,0.89093721
6253.90625,0.18797693,0.83546311
6257.8125,0.16250077,0.78501976
6261.71875,0.17250490,0.71940488
6265.625,0.16536823,0.62942505
6269.53125,0.11932664,0.52547991
6273.4375,0.10709421,0.42863098
6277.34375,0.11161121,0.34816319
6281.25,0.11217516,0.27484152
6285.15625,0.07190782,0.19832677
6289.0625,0.06764052,0.12189174
6292.96875,0.06452032,0.05739323
6296.875,0.04920227,0.01247870
6300.78125,0.04821494,-0.01607457
6304.6875,0.05586743,-0.04023982
6308.59375,0.02623399,-0.07267080
6312.5,0.03974933,-0.11906036
6316.40625,0.02544856,-0.17487228
6320.3125,0.01716019,-0.22658242
6324.21875,-0.00093336,-0.25975353
6328.125,0.01498422,-0.27046165
6332.03125,0.01521643,-0.26749626
6335.9375,-0.00413035,-0.26376152
6339.84375,0.01420637,-0.26918986
6343.75,0.01298144,-0.28794098
6347.65625,0.00072328,-0.31456754
6351.5625,-0.01361552,-0.33535159
6355.46875,-0.00561011,-0.34069848
6359.375,0.00591333,-0.33514437
6363.28125,0.00453744,-0.33057445
6367.1875,-0.00850877,-0.33194521
6371.09375,-0.01083788,-0.33505240
6375.0,0.00029452,-0.33685988
6378.90625,-0.00120336,-0.34125113
6382.8125,0.00266359,-0.35242495
6386.71875,-0.02349404,-0.36777759
6390.625,-0.01194652,-0.38151342
6394.53125,0.00007912,-0.39133468
6398.4375,-0.01986700,-0.39642778
6402.34375,-0.00969705,-0.39254794
6406.25,-0.02026109,-0.37541175
6410.15625,0.00026390,-0.34788692
6414.0625,0.00447323,-0.31994238
6417.96875,-0.01807890,-0.30257377
6421.875,0.01697937,-0.30299047
6425.78125,-0.00169872,-0.32055122
6429.6875,-0.01565189,-0.34438345
6433.59375,-0.00562529,-0.36040837
6437.5,-0.01765451,-0.36432564
6441.40625,0.00046960,-0.36572018
6445.3125,-0.01406681,-0.37876183
6449.21875,-0.02286643,-0.40967631
6453.125,-0.01553639,-0.45093012
6457.03125,-0.02792618,-0.48392332
6460.9375,-0.04052443,-0.48998323
6464.84375,-0.03022618,-0.46559063
6468.75,-0.00661506,-0.42670262
6472.65625,-0.02026611,-0.39404902
6476.5625,-0.00890417,-0.37622446
6480.46875,-0.01941987,-0.36958137
6484.375,-0.01448418,-0.36988750
6488.28125,-0.01025274,-0.37778151
6492.1875,-0.00365071,-0.39152732
6496.09375,-0.02593814,-0.39973387
6500.0,-0.02447422,-0.38971394
6503.90625,-0.01359224,-0.36477566
6507.8125,0.00486782,-0.34567884
6511.71875,-0.01103572,-0.34997240
6515.625,-0.01670476,-0.37321550
6519.53125,-0.01647227,-0.39284676
6523.4375,-0.01758356,-0.38840711
6527.34375,-0.02215261,-0.36004129
6531.25,-0.00405814,-0.33173978
6535.15625,0.00790808,-0.33257163
6539.0625,-0.01151299,-0.36744085
6542.96875,-0.03239373,-0.40868831
6546.875,-0.03700983,-0.42233452
6550.78125,0.00847948,-0.39952850
6554.6875,-0.03620867,-0.35936344
6558.59375,0.01332852,-0.32785726
6562.5,-0.00951003,-0.31784439
6566.40625,-0.01697684,-0.32374278
6570.3125,-0.00509578,-0.33223137
6574.21875,-0.01509585,-0.33699027
6578.125,0.00469496,-0.34127447
6582.03125,-0.02149710,-0.34869382
6585.9375,-0.01186092,-0.35772288
6589.84375,-0.02221102,-0.36696243
6593.75,-0.00948711,-0.37980598
6597.65625,-0.00601545,-0.39705437
6601.5625,-0.03182985,-0.40761074
6605.46875,-0.03581720,-0.39741319
6609.375,-0.00401751,-0.37046400
6613.28125,-0.00671115,-0.35101581
6617.1875,-0.01056945,-0.35953990
6621.09375,-0.02493267,-0.39243701
6625.0,-0.03048389,-0.42854664
6628.90625,-0.02881291,-0.44997272
6632.8125,-0.01637217,-0.45128840
6636.71875,-0.02855152,-0.43220025
6640.625,-0.02872166,-0.39238197
6644.53125,-0.01229487,-0.33893594
6648.4375,0.00358271,-0.29105708
6652.34375,0.00666227,-0.26811063
6656.25,-0.01378184,-0.27458051
6660.15625,-0.00287190,-0.30084789
6664.0625,-0.01092827,-0.33452401
6667.96875,-0.01235316,-0.36570850
6671.875,-0.01792195,-0.38538378
6675.78125,-0.02447784,-0.38764986
6679.6875,-0.02344562,-0.37722644
6683.59375,-0.01415442,-0.37032083
6687.5,0.00050913,-0.38020900
6691.40625,-0.03353848,-0.40012807
6695.3125,-0.02405250,-0.40688208
6699.21875,-0.03140780,-0.38562992
6703.125,-0.00922469,-0.34754014
6707.03125,0.01236600,-0.31837302
6710.9375,-0.01163399,-0.31179866
6714.84375,-0.03347325,-0.32205555
6718.75,-0.01184502,-0.34281766
6722.65625,0.00649702,-0.37789565
6726.5625,-0.02740914,-0.42492700
6730.46875,-0.04573882,-0.46324170
6734.375,-0.04243863,-0.47201833
6738.28125,-0.01257428,-0.45403892
6742.1875,-0.04151779,-0.43224320
6746.09375,0.00049035,-0.42547390
6750.0,-0.04776824,-0.43117175
6753.90625,-0.02054958,-0.43048406
6757.8125,-0.03451018,-0.40913394
6761.71875,-0.00818907,-0.37272981
6765.625,-0.01430760,-0.34200072
6769.53125,-0.01110808,-0.33497712
6773.4375,-0.00986223,-0.35345516
6777.34375,-0.02874083,-0.38332883
6781.25,-0.01770347,-0.40604457
6785.15625,-0.03018213,-0.41187412
6789.0625,-0.02354105,-0.40653113
6792.96875,-0.01681946,-0.40657955
6796.875,-0.02413123,-0.42492768
6800.78125,-0.03630808,-0.45765227
6804.6875,-0.03535402,-0.48542631
6808.59375,-0.03347122,-0.48797080
6812.5,-0.03249432,-0.45783338
6816.40625,-0.03293827,-0.40462518
6820.3125,-0.00159792,-0.34879360
6824.21875,-0.00759316,-0.30862176
6828.125,-0.01315407,-0.29055858
6832.03125,0.00151191,-0.28996980
6835.9375,-0.00730953,-0.29665589
6839.84375,-0.01707265,-0.29950044
6843.75,0.00631349,-0.29107910
6847.65625,0.00270270,-0.26975200
6851.5625,-0.02387836,-0.23831007
6855.46875,0.03582801,-0.20158769
6859.375,0.01402579,-0.16062866
6863.28125,0.00260295,-0.10858699
6867.1875,0.04924639,-0.03863379
6871.09375,0.04398491,0.04569811
6875.0,0.05367147,0.13147828
6878.90625,0.07806016,0.20339411
6882.8125,0.07886929,0.25003102
6886.71875,0.07838257,0.26882651
6890.625,0.08115095,0.26592299
6894.53125,0.08139624,0.25107253
6898.4375,0.07734664,0.23321679
6902.34375,0.05960935,0.21693145
6906.25,0.08447788,0.19888157
6910.15625,0.06432625,0.16970298
6914.0625,0.05458618,0.12216993
6917.96875,0.05601014,0.05746949
6921.875,0.02887660,-0.01604337
6925.78125,0.02292829,-0.08975895
6929.6875,0.02753407,-0.15898772
6933.59375,0.00850592,-0.21745785
6937.5,-0.00918194,-0.25278565
6941.40625,-0.01447403,-0.25804204
6945.3125,0.02937791,-0.24678090
6949.21875,-0.01694627,-0.24661228
6953.125,0.01412387,-0.27584851
6957.03125,-0.02423781,-0.32904109
6960.9375,-0.01240699,-0.38257423
6964.84375,-0.02364305,-0.41196904
6968.75,-0.03325759,-0.40874144
6972.65625,-0.02338944,-0.38721922
6976.5625,0.00589083,-0.37368768
6980.46875,-0.02950372,-0.38350886
6984.375,-0.03283682,-0.41016302
6988.28125,-0.01602067,-0.43752849
6992.1875,-0.03494453,-0.45726907
6996.09375,-0.03636151,-0.47628731
7000.0,-0.05225952,-0.51633286
7003.90625,-0.03640295,-0.60153538
7007.8125,-0.05838959,-0.72823769
7011.71875,-0.11163276,-0.83705014
7015.625,-0.07114375,-0.81526864
7019.53125,-0.04120217,-0.52890688
7023.4375,0.05862861,0.13161466
7027.34375,0.21158470,1.19761646
7031.25,0.43568662,2.57542157
7035.15625,0.67163652,4.04140663
7039.0625,0.85616618,5.29544115
7042.96875,0.99049276,6.05114079
7046.875,1.00370610,6.12688446
7050.78125,0.89329356,5.50548172
7054.6875,0.70737398,4.33658648
7058.59375,0.48066473,2.87812853
7062.5,0.26267663,1.40645778
7066.40625,0.04883942,0.13651696
7070.3125,-0.08978603,-0.82080424
7074.21875,-0.17509422,-1.45394349
7078.125,-0.22415859,-1.80788529
7082.03125,-0.27636135,-1.93738306
7085.9375,-0.24559173,-1.88863528
7089.84375,-0.22154143,-1.70567870
7093.75,-0.18562803,-1.43816674
7097.65625,-0.14613236,-1.14221716
7101.5625,-0.07926495,-0.87405741
7105.46875,-0.05791642,-0.67348439
7109.375,-0.05208991,-0.54817832
7113.28125,-0.03376092,-0.47795665
7117.1875,-0.02763422,-0.43598497
7121.09375,-0.02436090,-0.40607718
7125.0,-0.00934398,-0.38540614
7128.90625,-0.02348742,-0.37703115
7132.8125,-0.00779926,-0.38062230
7136.71875,-0.03304053,-0.38847354
7140.625,-0.01142163,-0.38963786
7144.53125,-0.01471115,-0.37769425
7148.4375,-0.01881470,-0.35473448
7152.34375,-0.00503071,-0.32862657
7156.25,-0.00655280,-0.30610225
7160.15625,-0.00985827,-0.28813049
7164.0625,0.01286180,-0.27165723
7167.96875,-0.00182647,-0.25334054
7171.875,0.00078809,-0.23178928
7175.78125,0.00043449,-0.21046019
7179.6875,0.02465588,-0.19665504
7183.59375,0.02772588,-0.19029520
7187.5,-0.00690049,-0.17539355
7191.40625,0.01659581,-0.13265580
7195.3125,0.03860193,-0.06106175
7199.21875,0.05311601,0.02099765
7203.125,0.05567744,0.09480203
7207.03125,0.05683397,0.15425308
7210.9375,0.08494500,0.20273514
7214.84375,0.07073479,0.24619912
7218.75,0.08853354,0.29056162
7222.65625,0.09819336,0.34155416
7226.5625,0.11090085,0.40542915
7230.46875,0.10966279,0.48772791
7234.375,0.12958157,0.58757752
7238.28125,0.15339810,0.69407463
7242.1875,0.16924223,0.79231709
7246.09375,0.17905647,0.87358606
7250.0,0.18676955,0.93897796
7253.90625,0.18933322,0.99556166
7257.8125,0.21147892,1.05132520
7261.71875,0.21376882,1.11179876
7265.625,0.22563054,1.17721057
7269.53125,0.23825778,1.24123967
7273.4375,0.23087732,1.29388213
7277.34375,0.25446182,1.32768047
7281.25,0.26676619,1.34483469
7285.15625,0.23819846,1.35936296
7289.0625,0.25681522,1.38639200
7292.96875,0.25784075,1.42531240
7296.875,0.28167349,1.45698380
7300.78125,0.26261547,1.45958889
7304.6875,0.26607895,1.42613876
7308.59375,0.26375461,1.36990416
7312.5,0.24021059,1.31649292
7316.40625,0.22726472,1.28522050
7320.3125,0.24917944,1.27138960
7324.21875,0.24255635,1.24874687
7328.125,0.22819994,1.19256771
7332.03125,0.21731502,1.10012221
7335.9375,0.18799858,0.99110067
7339.84375,0.17653926,0.89114630
7343.75,0.17363659,0.81349421
7347.65625,0.16957831,0.75382107
7351.5625,0.14568575,0.69951856
7355.46875,0.13401517,0.63915575
7359.375,0.13173014,0.56387627
7363.28125,0.13350189,0.46876749
7367.1875,0.08410798,0.35880977
7371.09375,0.08954261,0.25044107
7375.0,0.06398225,0.16341908
7378.90625,0.05040262,0.10905642
7382.8125,0.07650477,0.08350554
7386.71875,0.04215617,0.07092965
7390.625,0.05083777,0.05269783
7394.53125,0.05263974,0.01584525
7398.4375,0.04081846,-0.04049094
7402.34375,0.01448354,-0.10471648
7406.25,0.02540288,-0.16251881
7410.15625,0.01507262,-0.20668063
7414.0625,0.00305868,-0.23673807
7417.96875,0.00379249,-0.25472707
7421.875,-0.00214279,-0.26480818
7425.78125,0.01353601,-0.27281365
7429.6875,-0.00150435,-0.28187820
7433.59375,-0.00847762,-0.29011336
7437.5,-0.00057721,-0.29516318
7441.40625,-0.00218556,-0.29937553
7445.3125,-0.00113567,-0.30805501
7449.21875,0.00247915,-0.32294488
7453.125,-0.01951047,-0.33942574
7457.03125,-0.01783130,-0.35245082
7460.9375,0.00169017,-0.36403397
7464.84375,-0.02068825,-0.38029754
7468.75,-0.00429374,-0.40102717
7472.65625,-0.03968025,-0.41709861
7476.5625,-0.01364868,-0.42066818
7480.46875,-0.02390344,-0.41566080
7484.375,-0.01626313,-0.41515574
7488.28125,-0.00894405,-0.42737484
7492.1875,-0.03757615,-0.44572970
7496.09375,-0.03229934,-0.45540112
7500.0,-0.01432610,-0.44876078
7503.90625,-0.02813217,-0.43054235
7507.8125,-0.01119259,-0.40926415
7511.71875,-0.01301440,-0.38817707
7515.625,-0.02639817,-0.36614794
7519.53125,-0.00268058,-0.34642375
7523.4375,-0.00507754,-0.34063986
7527.34375,-0.00840811,-0.35996321
7531.25,-0.02043812,-0.40248072
7535.15625,-0.02002508,-0.45006466
7539.0625,-0.03039358,-0.47734523
7542.96875,-0.03813663,-0.46820539
7546.875,-0.01771063,-0.42933664
7550.78125,-0.00449459,-0.38649344
7554.6875,-0.01612878,-0.36363557
7558.59375,-0.00597058,-0.36552766
7562.5,-0.01962195,-0.37961051
7566.40625,-0.01827056,-0.39150241
7570.3125,-0.01788669,-0.39732912
7574.21875,0.00199948,-0.40058562
7578.125,-0.02628464,-0.39909410
7582.03125,-0.02067146,-0.38252729
7585.9375,-0.00313857,-0.34654492
7589.84375,-0.00040204,-0.30432075
7593.75,-0.00464357,-0.28016517
7597.65625,0.01960986,-0.29080704
7601.5625,-0.01325621,-0.32948402
7605.46875,-0.01143687,-0.36798793
7609.375,-0.01839172,-0.37915835
7613.28125,-0.01521518,-0.35988283
7617.1875,0.00989729,-0.33111510
7621.09375,0.00156274,-0.31563410
7625.0,-0.01505484,-0.31841776
7628.90625,0.00494602,-0.32887983
7632.8125,-0.02196729,-0.33688098
7636.71875,0.01136031,-0.34251946
7640.625,-0.01512606,-0.35201639
7644.53125,-0.00064026,-0.36746347
7648.4375,-0.02606782,-0.38323396
7652.34375,-0.00818280,-0.39316043
7656.25,-0.01505816,-0.39871457
7660.15625,-0.01276653,-0.40684098
7664.0625,-0.01119479,-0.41957977
7667.96875,-0.03008342,-0.43000582
7671.875,-0.02956891,-0.43216896
7675.78125,0.00699382,-0.43001601
7679.6875,-0.02362538,-0.42897987
7683.59375,-0.03629053,-0.42490944
7687.5,-0.00401961,-0.41088590
7691.40625,-0.00922680,-0.38860658
7695.3125,-0.00719522,-0.36514878
7699.21875,-0.01448617,-0.34536484
7703.125,-0.00076118,-0.33376476
7707.03125,0.00221300,-0.33769253
7710.9375,-0.01131916,-0.36117902
7714.84375,-0.00366797,-0.39632827
7718.75,-0.03190132,-0.42581639
7722.65625,-0.01155552,-0.43695161
7726.5625,-0.01921339,-0.43226475
7730.46875,-0.02195192,-0.42454818
7734.375,0.00338341,-0.42221057
7738.28125,-0.03383198,-0.42100111
7742.1875,-0.00499377,-0.41062602
7746.09375,-0.02446556,-0.38811573
7750.0,0.00559383,-0.36256045
7753.90625,-0.00596762,-0.34710532
7757.8125,0.00340724,-0.34738383
7761.71875,-0.01055832,-0.35715365
7765.625,-0.02466950,-0.36509821
7769.53125,0.02193595,-0.36463082
7773.4375,-0.00906471,-0.35506284
7777.34375,-0.02049107,-0.33868474
7781.25,0.00652401,-0.32290536
7785.15625,0.01877506,-0.31778216
7789.0625,-0.00613355,-0.32420263
7792.96875,-0.01196635,-0.33210719
7796.875,0.00189308,-0.33483806
7800.78125,0.00474445,-0.33661777
7804.6875,0.00584479,-0.34193036
7808.59375,-0.00922432,-0.34500927
7812.5,-0.00563145,-0.33578101
7816.40625,0.00025481,-0.31423071
7820.3125,0.01894648,-0.29412037
7824.21875,0.01053245,-0.29099005
7828.125,-0.01182010,-0.30979148
7832.03125,0.00059440,-0.34575713
7835.9375,0.00569907,-0.39036378
7839.84375,-0.01165306,-0.43076849
7843.75,-0.03964145,-0.45077845
7847.65625,-0.00280738,-0.44143862
7851.5625,-0.01057991,-0.40891305
7855.46875,-0.00095169,-0.36935252
7859.375,0.00076374,-0.33866766
7863.28125,-0.00186606,-0.32659823
7867.1875,-0.00317874,-0.33634746
7871.09375,0.00986664,-0.36627132
7875.0,-0.00852929,-0.40846977
7878.90625,-0.02116132,-0.44697285
7882.8125,-0.03047360,-0.46453610
7886.71875,0.00383118,-0.45449850
7890.625,-0.01897666,-0.42361763
7894.53125,-0.00431689,-0.38449740
7898.4375,-0.00136751,-0.34835064
7902.34375,0.00797656,-0.32258683
7906.25,0.00920712,-0.31101981
7910.15625,-0.00017243,-0.31537923
7914.0625,0.00054647,-0.33553827
7917.96875,0.02102483,-0.36490688
7921.875,-0.02365534,-0.38639009
7925.78125,0.00134867,-0.38068998
7929.6875,-0.00334914,-0.34373987
7933.59375,0.00789616,-0.29394269
7937.5,0.03550519,-0.25865781
7941.40625,0.01303296,-0.25009504
7945.3125,0.01020712,-0.25296360
7949.21875,0.01500745,-0.23705970
7953.125,0.04054848,-0.18144806
7957.03125,0.04132843,-0.08759508
7960.9375,0.04677607,0.02289446
7964.84375,0.08314300,0.11941269
7968.75,0.10358799,0.18045241
7972.65625,0.08013454,0.20898445
7976.5625,0.08222146,0.22690654
7980.46875,0.10520136,0.25226507
7984.375,0.09581029,0.28448036
7988.28125,0.11063280,0.30794951
7992.1875,0.11170764,0.30506516
7996.09375,0.09960125,0.26975459
8000.0,0.08925059,0.21221314
8003.90625,0.06871924,0.14773086
8007.8125,0.08266931,0.08169962
8011.71875,0.07612237,0.01201590
8015.625,0.03542724,-0.05613738
8019.53125,0.03642483,-0.11045443
8023.4375,0.04180599,-0.14875165
8027.34375,0.03164440,-0.18462059
8031.25,0.03685457,-0.23047811
8035.15625,0.00541914,-0.28103143
8039.0625,0.01061230,-0.31809548
8042.96875,0.01021918,-0.32882038
8046.875,0.00834358,-0.31634626
8050.78125,0.02003431,-0.29632366
8054.6875,0.01549944,-0.28664070
8058.59375,0.02278615,-0.29673511
8062.5,0.00385371,-0.32210487
8066.40625,-0.00209307,-0.35055706
8070.3125,0.01423451,-0.37492079
8074.21875,0.00906490,-0.39546710
8078.125,-0.01003858,-0.41070905
8082.03125,-0.01165338,-0.41610163
8085.9375,0.00212644,-0.41661838
8089.84375,0.00484885,-0.43363523
8093.75,-0.03123275,-0.49262601
8097.65625,-0.01511227,-0.59925872
8101.5625,-0.04687660,-0.71633953
8105.46875,-0.05775806,-0.75344014
8109.375,-0.01474126,-0.58008754
8113.28125,0.05304540,-0.06376145
8117.1875,0.17889270,0.87205184
8121.09375,0.39136070,2.18357158
8125.0,0.63762689,3.67510557
8128.90625,0.85319817,5.03884315
8132.8125,0.98698103,5.95555449
8136.71875,1.03638887,6.20382786
8140.625,0.96632791,5.73142385
8144.53125,0.77451837,4.66500902
8148.4375,0.56362367,3.25363016
8152.34375,0.33068195,1.77259815
8156.25,0.14141591,0.44016138
8160.15625,-0.04490641,-0.61711872
8164.0625,-0.13019925,-1.35456538
8167.96875,-0.20693649,-1.78064549
8171.875,-0.23340207,-1.93354464
8175.78125,-0.25012207,-1.87473917
8179.6875,-0.18316273,-1.68703020
8183.59375,-0.13642251,-1.45407152
8187.5,-0.14130744,-1.22877550
8191.40625,-0.08881643,-1.02489769
8195.3125,-0.07892346,-0.83896387
8199.21875,-0.02753938,-0.67268199
8203.125,-0.01038203,-0.53503400
8207.03125,0.00021798,-0.43366489
8210.9375,-0.01408770,-0.37268421
8214.84375,0.03196588,-0.35452488
8218.75,0.01990775,-0.37207359
8222.65625,-0.01059353,-0.39969805
8226.5625,0.00114331,-0.40621296
8230.46875,0.00828423,-0.38190177
8234.375,0.01223007,-0.34656674
8238.28125,0.03554931,-0.32828280
8242.1875,0.00289144,-0.33577964
8246.09375,0.01137664,-0.35168990
8250.0,0.01683435,-0.34986326
8253.90625,0.01958767,-0.31599438
8257.8125,0.02497353,-0.25500587
8261.71875,0.03352424,-0.18695104
8265.625,0.05565199,-0.13729082
8269.53125,0.05474182,-0.12323313
8273.4375,0.04772484,-0.14163963
8277.34375,0.02995097,-0.16913471
8281.25,0.04191876,-0.17724717
8285.15625,0.04851711,-0.14999744
8289.0625,0.06540758,-0.08857625
8292.96875,0.06087388,-0.00324224
8296.875,0.07563061,0.09382939
8300.78125,0.10265256,0.18814045
8304.6875,0.11792427,0.26343736
8308.59375,0.11014184,0.31047338
8312.5,0.14142737,0.33768141
8316.40625,0.09941678,0.37040457
8320.3125,0.14552122,0.43301296
8324.21875,0.15035255,0.52880961
8328.125,0.17902227,0.63988608
8332.03125,0.18014742,0.74500382
8335.9375,0.19688058,0.83337599
8339.84375,0.21224327,0.90443701
8343.75,0.21545762,0.96222758
8347.65625,0.23639028,1.01275694
8351.5625,0.23412168,1.06323898
8355.46875,0.23456806,1.11839330
8359.375,0.25081959,1.17491460
8363.28125,0.26934561,1.22284865
8367.1875,0.26829335,1.25647342
8371.09375,0.27133769,1.28263915
8375.0,0.26397806,1.31523168
8378.90625,0.27730584,1.36067140
8382.8125,0.29830134,1.40940654
8386.71875,0.29616302,1.44196212
8390.625,0.30005658,1.44402504
8394.53125,0.28335997,1.41765845
8398.4375,0.28232655,1.37981331
8402.34375,0.28894570,1.34915543
8406.25,0.26052690,1.33114207
8410.15625,0.30404645,1.31398642
8414.0625,0.24576618,1.27832711
8417.96875,0.25652042,1.20839214
8421.875,0.25939184,1.09748268
8425.78125,0.22029942,0.95467740
8429.6875,0.18633547,0.80891412
8433.59375,0.18727291,0.69731838
8437.5,0.16683125,0.64284885
8441.40625,0.15394510,0.63760591
8445.3125,0.19316743,0.64347547
8449.21875,0.17002679,0.61572647
8453.125,0.15722515,0.53546900
8457.03125,0.12399299,0.42102760
8460.9375,0.12534714,0.30952820
8464.84375,0.10845230,0.22979896
8468.75,0.10095245,0.18661772
8472.65625,0.09187645,0.16086829
8476.5625,0.09968518,0.12443999
8480.46875,0.08243705,0.06260940
8484.375,0.07307511,-0.01396366
8488.28125,0.06155519,-0.07996911
8492.1875,0.03772184,-0.11915467
8496.09375,0.05776837,-0.13868086
8500.0,0.04823831,-0.16051689
8503.90625,0.06531564,-0.19782472
8507.8125,0.01581633,-0.24140269
8511.71875,0.02279856,-0.27232605
8515.625,0.03267376,-0.28473490
8519.53125,0.03483503,-0.28938541
8523.4375,0.03344579,-0.29611397
8527.34375,0.02415352,-0.30102983
8531.25,0.01617390,-0.29516912
8535.15625,0.02327179,-0.28315225
8539.0625,0.04338550,-0.28632253
8542.96875,0.03176749,-0.32157230
8546.875,0.00364207,-0.37926754
8550.78125,0.01199934,-0.42753664
8554.6875,-0.00345848,-0.43841830
8558.59375,0.00309743,-0.40984452
8562.5,0.02832452,-0.36574888
8566.40625,0.03314251,-0.33546472
8570.3125,0.00839520,-0.33158574
8574.21875,0.02537034,-0.34689695
8578.125,0.00157968,-0.36798275
8582.03125,0.02898951,-0.38645729
8585.9375,0.01154543,-0.39843988
8589.84375,0.01420140,-0.39929685
8593.75,0.00639596,-0.38429242
8597.65625,0.00927262,-0.35598916
8601.5625,0.03975001,-0.32797801
8605.46875,0.02168329,-0.31703350
8609.375,0.02449439,-0.33055103
8613.28125,0.01242751,-0.36176741
8617.1875,0.01292317,-0.39492390
8621.09375,0.01240935,-0.41427922
8625.0,0.00549441,-0.41170543
8628.90625,0.02554673,-0.38931426
8632.8125,0.00420532,-0.35684282
8636.71875,0.02530435,-0.32759196
8640.625,0.03509506,-0.31327510
8644.53125,0.02728380,-0.31699485
8648.4375,0.00414333,-0.33248577
8652.34375,0.03742646,-0.35305986
8656.25,0.00665209,-0.37700555
8660.15625,0.01434733,-0.40257847
8664.0625,0.01101630,-0.42339033
8667.96875,0.00617202,-0.43174353
8671.875,0.00461545,-0.42556655
8675.78125,0.01180699,-0.41100019
8679.6875,0.01716720,-0.39609510
8683.59375,0.01957620,-0.38214436
8687.5,-0.00015861,-0.36547723
8691.40625,0.03676254,-0.34743667
8695.3125,0.02096423,-0.33513060
8699.21875,0.01960044,-0.33129597
8703.125,0.01965355,-0.33154371
8707.03125,0.02795553,-0.33294326
8710.9375,0.02438221,-0.33780283
8714.84375,0.02164052,-0.34726480
8718.75,0.00828594,-0.35743055
8722.65625,0.02690918,-0.36431831
8726.5625,0.01837139,-0.36784139
8730.46875,0.01842664,-0.36824206
8734.375,0.01456240,-0.36246002
8738.28125,0.02340448,-0.34688678
8742.1875,0.02424709,-0.32259816
8746.09375,0.02288432,-0.29783517
8750.0,0.03940779,-0.28568071
8753.90625,0.02956126,-0.29613528
8757.8125,0.02021965,-0.32711470
8761.71875,0.02496746,-0.36350062
8765.625,-0.00114965,-0.38744810
8769.53125,0.02980608,-0.39165089
8773.4375,0.01354426,-0.38284332
8777.34375,0.00976388,-0.37333965
8781.25,0.02669011,-0.37140396
8785.15625,0.00646148,-0.37841550
8789.0625,0.02765903,-0.39046541
8792.96875,0.01114324,-0.40002733
8796.875,0.00201340,-0.39909554
8800.78125,0.01688921,-0.38602370
8804.6875,0.02950039,-0.36878410
8808.59375,0.01233185,-0.35737267
8812.5,0.02717062,-0.35315448
8816.40625,0.01838487,-0.34723276
8820.3125,0.01976987,-0.32958347
8824.21875,0.03157485,-0.30185896
8828.125,0.02012864,-0.28231028
8832.03125,0.05397409,-0.29402286
8835.9375,0.01578697,-0.34303218
8839.84375,0.00874191,-0.40862459
8843.75,-0.00460481,-0.45913404
8847.65625,0.00443809,-0.47679642
8851.5625,0.01874506,-0.46555090
8855.46875,-0.00257943,-0.44026077
8859.375,0.00151669,-0.41628271
8863.28125,0.02471556,-0.40614516
8867.1875,0.01586252,-0.41411510
8871.09375,0.00765152,-0.43073502
8875.0,-0.00187772,-0.43985584
8878.90625,0.00925275,-0.43364993
8882.8125,0.01664973,-0.41756713
8886.71875,0.01564548,-0.40138292
8890.625,0.01643745,-0.38924402
8894.53125,0.01532742,-0.37832245
8898.4375,0.01400644,-0.36456564
8902.34375,0.02342336,-0.34909949
8906.25,0.03094288,-0.33814174
8910.15625,0.02735882,-0.33505315
8914.0625,0.01274956,-0.33482540
8917.96875,0.02992010,-0.33019277
8921.875,0.02570464,-0.32185081
8925.78125,0.02567308,-0.31949994
8929.6875,0.02775270,-0.33261880
8933.59375,0.02757201,-0.35992268
8937.5,0.00634556,-0.38716578
8941.40625,0.01973292,-0.39655754
8945.3125,0.01515403,-0.38062003
8949.21875,0.00701520,-0.34997201
8953.125,0.05584520,-0.32776096
8957.03125,0.01625347,-0.33097073
8960.9375,0.01026088,-0.35526702
8964.84375,0.02630601,-0.38047302
8968.75,0.01683519,-0.38829243
8972.65625,0.01362331,-0.37439418
8976.5625,0.02307228,-0.34996757
8980.46875,0.02826460,-0.33334810
8984.375,0.02511552,-0.33573702
8988.28125,0.02974756,-0.35271779
8992.1875,0.01018022,-0.36974272
8996.09375,0.00923895,-0.37624505
9000.0,0.03796444,-0.37380847
9003.90625,0.00844529,-0.37020251
9007.8125,0.02889645,-0.36849681
9011.71875,0.01819528,-0.36475512
9015.625,0.00793016,-0.35549730
9019.53125,0.03414906,-0.34476063
9023.4375,0.03965667,-0.33920622
9027.34375,0.00527703,-0.33605811
9031.25,0.02792753,-0.32305348
9035.15625,0.04516383,-0.29093254
9039.0625,0.02610233,-0.23981361
9042.96875,0.06459399,-0.17532380
9046.875,0.04085651,-0.10451375
9050.78125,0.09401764,-0.03412446
9054.6875,0.07284451,0.03204916
9058.59375,0.09649831,0.09445332
9062.5,0.08611078,0.15337515
9066.40625,0.12628551,0.20348760
9070.3125,0.10972805,0.23539586
9074.21875,0.10731924,0.24147250
9078.125,0.12072320,0.22028859
9082.03125,0.11402176,0.18065999
9085.9375,0.07824158,0.13999140
9089.84375,0.09992944,0.11025254
9093.75,0.10230871,0.08693398
9097.65625,0.07957377,0.05793699
9101.5625,0.08392031,0.01879546
9105.46875,0.06889080,-0.02596420
9109.375,0.07269763,-0.07157764
9113.28125,0.04827178,-0.11871413
9117.1875,0.06565208,-0.17183682
9121.09375,0.03351746,-0.23290561
9125.0,0.03460550,-0.29617986
9128.90625,0.02549918,-0.34910536
9132.8125,0.01364635,-0.37899655
9136.71875,0.02354765,-0.38142926
9140.625,0.01528800,-0.36446264
9144.53125,0.03200014,-0.34409896
9148.4375,0.01995111,-0.33390597
9152.34375,0.03157574,-0.33691475
9156.25,0.03088409,-0.34418923
9160.15625,0.01454530,-0.34115702
9164.0625,0.01751098,-0.32103929
9167.96875,0.05189599,-0.29477158
9171.875,0.03037144,-0.28504872
9175.78125,0.01943044,-0.31195351
9179.6875,0.03175271,-0.38530391
9183.59375,-0.00851563,-0.50326896
9187.5,-0.03555148,-0.65099305
9191.40625,-0.02280188,-0.79413182
9195.3125,-0.04912820,-0.86275488
9199.21875,-0.04669703,-0.74234784
9203.125,0.02913790,-0.30138028
9207.03125,0.16612662,0.54746556
9210.9375,0.33944672,1.78676319
9214.84375,0.57898170,3.26356387
9218.75,0.81050295,4.70583868
9222.65625,0.98076707,5.79324245
9226.5625,1.06489408,6.26139307
9230.46875,0.99331868,5.99300146
9234.375,0.89295346,5.05580091
9238.28125,0.62432218,3.67483020
9242.1875,0.40509638,2.14974904
9246.09375,0.18255763,0.75063920
9250.0,0.03046309,-0.35691682
9253.90625,-0.09799074,-1.12542164
9257.8125,-0.16109309,-1.58903944
9261.71875,-0.20172404,-1.81183660
9265.625,-0.20798518,-1.85059500
9269.53125,-0.19811353,-1.74569833
9273.4375,-0.15743901,-1.53342175
9277.34375,-0.12448155,-1.25961649
9281.25,-0.06724249,-0.97913045
9285.15625,-0.03800054,-0.74102670
9289.0625,-0.00475562,-0.57205075
9292.96875,-0.00083407,-0.47191009
9296.875,0.00631103,-0.42337254
9300.78125,0.02186311,-0.40643418
9304.6875,0.01242566,-0.40435943
9308.59375,0.01709782,-0.40280893
9312.5,0.01018374,-0.39109609
9316.40625,0.02859951,-0.36594442
9320.3125,0.02584006,-0.33189410
9324.21875,0.01587586,-0.29921141
9328.125,0.04970601,-0.28129113
9332.03125,0.03341416,-0.28710368
9335.9375,0.02536851,-0.31203309
9339.84375,0.01903490,-0.34008959
9343.75,0.02206859,-0.35614944
9347.65625,0.03321405,-0.35239065
9351.5625,0.01780170,-0.32576111
9355.46875,0.03035784,-0.27782241
9359.375,0.04782723,-0.21799684
9363.28125,0.06011987,-0.16000147
9367.1875,0.04036381,-0.11377481
9371.09375,0.07439950,-0.08326072
9375.0,0.07618178,-0.06589293
9378.90625,0.06039708,-0.04885413
9382.8125,0.06303811,-0.01333297
9386.71875,0.09574202,0.05165048
9390.625,0.10509135,0.14355469
9394.53125,0.10361671,0.25177434
9398.4375,0.12552908,0.35987893
9402.34375,0.16517982,0.44649860
9406.25,0.13746911,0.49629113
9410.15625,0.16627687,0.51286292
9414.0625,0.15462708,0.51906556
9417.96875,0.15558587,0.54528111
9421.875,0.17197038,0.61310202
9425.78125,0.17716974,0.72193301
9429.6875,0.22096628,0.84847915
9433.59375,0.22288778,0.96247023
9437.5,0.23658608,1.04645419
9441.40625,0.24901116,1.10284889
9445.3125,0.24350306,1.14489615
9449.21875,0.26258525,1.18262482
9453.125,0.26381704,1.21696067
9457.03125,0.27233347,1.24554229
9460.9375,0.26969838,1.27082157
9464.84375,0.26873481,1.29957104
9468.75,0.29143679,1.33577013
9472.65625,0.28393114,1.37631524
9476.5625,0.28589165,1.41157842
9480.46875,0.30580682,1.42876744
9484.375,0.29405028,1.41997540
9488.28125,0.28858683,1.39052594
9492.1875,0.28159383,1.35602057
9496.09375,0.27713233,1.32864583
9500.0,0.28368428,1.30707407
9503.90625,0.25888163,1.27815688
9507.8125,0.27459583,1.22669518
9511.71875,0.26125190,1.14715230
9515.625,0.21795529,1.04877460
9519.53125,0.21796767,0.94712043
9523.4375,0.22177264,0.85265356
9527.34375,0.18922606,0.77072275
9531.25,0.16683587,0.70359844
9535.15625,0.17768261,0.64449906
9539.0625,0.17910343,0.57843798
9542.96875,0.13040714,0.49693054
9546.875,0.15145464,0.40685493
9550.78125,0.11121917,0.32224259
9554.6875,0.10603813,0.25080755
9558.59375,0.11142920,0.18875585
9562.5,0.09225263,0.12770823
9566.40625,0.08084933,0.06575257
9570.3125,0.07419712,0.00904452
9574.21875,0.04861782,-0.03788871
9578.125,0.08130176,-0.07917452
9582.03125,0.05178735,-0.12077819
9585.9375,0.03833331,-0.16056719
9589.84375,0.03177012,-0.19334570
9593.75,0.04736587,-0.22304483
9597.65625,0.04001116,-0.25935021
9601.5625,0.01130462,-0.30203196
9605.46875,0.02321223,-0.33698675
9609.375,0.00865557,-0.34947276
9613.28125,0.02835263,-0.33748436
9617.1875,0.01348763,-0.31298035
9621.09375,0.02671193,-0.29374692
9625.0,0.02566520,-0.29293975
9628.90625,0.02968139,-0.31102431
9632.8125,0.01061968,-0.33558440
9636.71875,0.00851610,-0.35219669
9640.625,0.01533992,-0.35747123
9644.53125,0.02409521,-0.35948744
9648.4375,0.00747363,-0.36595863
9652.34375,0.00602602,-0.37573475
9656.25,0.02299492,-0.38135773
9660.15625,-0.01112002,-0.37685224
9664.0625,0.02833509,-0.36405602
9667.96875,0.00879650,-0.35213873
9671.875,0.01415068,-0.34899130
9675.78125,0.02317454,-0.35311690
9679.6875,-0.00043693,-0.35555425
9683.59375,0.01261629,-0.35039830
9687.5,0.02387795,-0.34161556
9691.40625,0.01309383,-0.33728549
9695.3125,0.01849387,-0.34030423
9699.21875,0.00097968,-0.34908038
9703.125,0.01802460,-0.36385834
9707.03125,0.01143119,-0.38535064
9710.9375,0.00395380,-0.40747020
9714.84375,-0.00705958,-0.41811609
9718.75,0.01385845,-0.40943894
9722.65625,-0.00425435,-0.38487947
9726.5625,0.01236172,-0.35727507
9730.46875,0.02592846,-0.34148523
9734.375,0.00386282,-0.34530076
9738.28125,0.01249256,-0.36532527
9742.1875,-0.00538384,-0.39217174
9746.09375,0.01714895,-0.41797614
9750.0,-0.01742983,-0.43832034
9753.90625,0.00760096,-0.44994971
9757.8125,-0.00676902,-0.44856933
9761.71875,-0.00472995,-0.43017381
9765.625,-0.00470685,-0.39742047
9769.53125,0.02635473,-0.36337763
9773.4375,-0.00415909,-0.34411556
9777.34375,0.02385059,-0.34669539
9781.25,0.00545652,-0.36453220
9785.15625,-0.00184170,-0.38283384
9789.0625,0.00564432,-0.38985217
9792.96875,0.00412137,-0.38560846
9796.875,0.00457836,-0.38015458
9800.78125,0.01822418,-0.38239479
9804.6875,-0.01462109,-0.39019871
9808.59375,0.00927784,-0.39255127
9812.5,0.00517844,-0.38113078
9816.40625,0.01026696,-0.35867921
9820.3125,-0.00369055,-0.33853891
9824.21875,0.02690692,-0.33643436
9828.125,0.00967073,-0.35707095
9832.03125,-0.00615951,-0.38748491
9835.9375,-0.00040473,-0.40774938
9839.84375,0.00175400,-0.40723723
9843.75,-0.00118302,-0.38839191
9847.65625,0.01591051,-0.36049655
9851.5625,-0.00878591,-0.33551744
9855.46875,0.03489837,-0.32566068
9859.375,-0.00132941,-0.33669171
9863.28125,0.00210808,-0.36314750
9867.1875,0.00195437,-0.39318299
9871.09375,0.01097574,-0.41497740
9875.0,-0.02190699,-0.41841081
9878.90625,0.00308190,-0.39980176
9882.8125,0.01254845,-0.36824945
9886.71875,-0.00097755,-0.34170088
9890.625,0.00849879,-0.33473432
9894.53125,0.02451011,-0.34889713
9898.4375,-0.00972716,-0.37168947
9902.34375,-0.00712999,-0.38772655
9906.25,0.00251933,-0.39383447
9910.15625,0.00493816,-0.39893883
9914.0625,0.00175882,-0.40823776
9917.96875,-0.00820288,-0.41352615
9921.875,-0.00631936,-0.40166131
9925.78125,-0.00394248,-0.37061822
9929.6875,0.00746743,-0.33612058
9933.59375,0.03262834,-0.31994110
9937.5,0.00308402,-0.32859176
9941.40625,-0.01664668,-0.34672347
9945.3125,0.02219604,-0.35476586
9949.21875,-0.00325930,-0.34873873
9953.125,0.01102223,-0.34121469
9957.03125,0.00666902,-0.34753993
9960.9375,0.00027378,-0.37141424
9964.84375,0.00263458,-0.40122163
9968.75,-0.02485848,-0.42080998
9972.65625,0.01340232,-0.42391777
9976.5625,-0.02938998,-0.41721058
9980.46875,0.01840788,-0.41020751
9984.375,-0.00089164,-0.40267295
9988.28125,-0.02322912,-0.38355130
9992.1875,0.00449640,-0.34671420
9996.09375,0.02167767,-0.30510333
10000.0,0.02090201,-0.28140122
10003.90625,0.00687498,-0.28562275
10007.8125,0.00744369,-0.30725628
10011.71875,0.00353357,-0.32831681
10015.625,0.01102582,-0.34090722
10019.53125,-0.00272142,-0.35222861
10023.4375,0.00850571,-0.37329501
10027.34375,-0.01475689,-0.40296069
10031.25,0.00485919,-0.42411217
10035.15625,-0.01654716,-0.41742787
10039.0625,-0.01442212,-0.38124025
10042.96875,0.01627756,-0.33874637
10046.875,0.00222099,-0.32250032
10050.78125,0.02320646,-0.34692469
10054.6875,-0.01335687,-0.39346105
10058.59375,-0.02390808,-0.42515251
10062.5,-0.01416648,-0.42105108
10066.40625,0.00965947,-0.39590445
10070.3125,0.00711564,-0.38192362
10074.21875,-0.01919908,-0.39425260
10078.125,-0.00875441,-0.41904598
10082.03125,-0.00046282,-0.42918000
10085.9375,-0.00755530,-0.40519494
10089.84375,-0.02807532,-0.35036719
10093.75,0.03044975,-0.29542252
10097.65625,0.02489219,-0.27923796
10101.5625,0.01008649,-0.31207213
10105.46875,-0.01142121,-0.36039498
10109.375,-0.01859617,-0.37516454
10113.28125,0.01520126,-0.33523738
10117.1875,0.01606114,-0.26238140
10121.09375,0.02729693,-0.19745399
10125.0,0.03472856,-0.16454187
10128.90625,0.02199546,-0.15586048
10132.8125,0.02899403,-0.14675285
10136.71875,0.04314197,-0.11948514
10140.625,0.04693250,-0.06968678
10144.53125,0.04508173,0.00140942
10148.4375,0.06870080,0.08845819
10152.34375,0.09308834,0.17753693
10156.25,0.08537423,0.25007248
10160.15625,0.09426926,0.29282534
10164.0625,0.11742837,0.30287996
10167.96875,0.08766817,0.28686336
10171.875,0.09387337,0.25626791
10175.78125,0.08732339,0.21996818
10179.6875,0.08416237,0.18037166
10183.59375,0.08180134,0.13679586
10187.5,0.05604053,0.08994627
10191.40625,0.05752188,0.04196323
10195.3125,0.07756063,-0.00409712
10199.21875,0.02727404,-0.04341577
10203.125,0.03531886,-0.07476366
10207.03125,0.04131373,-0.10818269
10210.9375,0.04267639,-0.15716736
10214.84375,0.02157093,-0.21955138
10218.75,-0.00568000,-0.27519763
10222.65625,-0.00071004,-0.30708241
10226.5625,0.01622465,-0.31783292
10230.46875,0.01366966,-0.32146379
10234.375,-0.01068407,-0.32683516
10238.28125,-0.00557505,-0.33618471
10242.1875,0.01162177,-0.35251683
10246.09375,-0.01909927,-0.37829787
10250.0,0.01187990,-0.40799734
10253.90625,-0.03025291,-0.42796314
10257.8125,-0.02114931,-0.42754975
10261.71875,-0.00132709,-0.41149512
10265.625,-0.00437777,-0.39943665
10269.53125,-0.02814138,-0.41367096
10273.4375,-0.00148229,-0.46805415
10277.34375,-0.04912300,-0.56140810
10281.25,-0.05317788,-0.67133534
10285.15625,-0.04846876,-0.74544597
10289.0625,-0.05678293,-0.69127643
10292.96875,0.00180450,-0.38208517
10296.875,0.08197270,0.29979873
10300.78125,0.26136312,1.39091456
10304.6875,0.47064960,2.78909254
10308.59375,0.71886736,4.25293589
10312.5,0.90672833,5.46688080
10316.40625,1.00438094,6.14274216
10320.3125,1.01327872,6.11431313
10324.21875,0.87959808,5.38989544
10328.125,0.70002556,4.14385509
10332.03125,0.45579475,2.65022850
10335.9375,0.21809407,1.18708897
10339.84375,0.04660353,-0.04471119
10343.75,-0.09805486,-0.95333362
10347.65625,-0.17038363,-1.53569889
10351.5625,-0.24896930,-1.83575797
10355.46875,-0.23521827,-1.91297770
10359.375,-0.23560858,-1.82786942
10363.28125,-0.21223801,-1.63663876
10367.1875,-0.14947829,-1.38887596
10371.09375,-0.13297607,-1.12545025
10375.0,-0.08755592,-0.87828135
10378.90625,-0.05401396,-0.67364061
10382.8125,-0.02708888,-0.53187311
10386.71875,-0.02185364,-0.45950896
10390.625,-0.02731446,-0.44378009
10394.53125,-0.00728321,-0.45777452
10398.4375,-0.02985820,-0.47191894
10402.34375,-0.02928170,-0.46629652
10406.25,-0.02155111,-0.43964005
10410.15625,0.00001498,-0.40645134
10414.0625,-0.01682934,-0.38169900
10417.96875,-0.00176242,-0.36761856
10421.875,-0.00629907,-0.35345957
10425.78125,-0.00941546,-0.32616204
10429.6875,-0.00256751,-0.28506353
10433.59375,0.02367144,-0.24793364
10437.5,0.01648821,-0.23656432
10441.40625,0.00695848,-0.25257140
10445.3125,0.00840761,-0.27056053
10449.21875,-0.01135571,-0.25859153
10453.125,0.03393427,-0.20557858
10457.03125,0.02576713,-0.12840718
10460.9375,0.03797691,-0.05565289
10464.84375,0.05246991,-0.00793847
10468.75,0.03623206,0.01043169
10472.65625,0.07032406,0.01074233
10476.5625,0.03622863,0.01523903
10480.46875,0.05913793,0.04764988
10484.375,0.06349045,0.11973479
10488.28125,0.07446250,0.22283354
10492.1875,0.11035757,0.33246037
10496.09375,0.11332564,0.42395604
10500.0,0.12596811,0.48770761
10503.90625,0.11943239,0.53196788
10507.8125,0.14379157,0.57319736
10511.71875,0.13079120,0.62420410
10515.625,0.17118439,0.68851835
10519.53125,0.15648006,0.76274210
10523.4375,0.17849697,0.84234846
10527.34375,0.18396214,0.92462516
10531.25,0.21381681,1.00801158
10535.15625,0.20505485,1.09039342
10539.0625,0.23416591,1.16793847
10542.96875,0.24338876,1.23655879
10546.875,0.22578299,1.29391098
10550.78125,0.26776940,1.33755636
10554.6875,0.26395887,1.36479545
10558.59375,0.25273880,1.37837553
10562.5,0.25632358,1.38711965
10566.40625,0.26225170,1.39667737
10570.3125,0.26749387,1.40357399
10574.21875,0.26477432,1.40005362
10578.125,0.25011161,1.38102686
10582.03125,0.26435053,1.34634697
10585.9375,0.24407285,1.30179238
10589.84375,0.24011073,1.25868452
10593.75,0.22606353,1.22589135
10597.65625,0.23650414,1.19842827
10601.5625,0.22643471,1.15816748
10605.46875,0.22085142,1.09032512
10609.375,0.18641865,0.99767900
10613.28125,0.18359490,0.89580303
10617.1875,0.17886662,0.79764074
10621.09375,0.14706200,0.70661241
10625.0,0.13293593,0.62082773
10628.90625,0.14134516,0.53955847
10632.8125,0.11198950,0.46725211
10636.71875,0.10868185,0.41086611
10640.625,0.08962025,0.37000650
10644.53125,0.10574478,0.33208215
10648.4375,0.08798723,0.28195539
10652.34375,0.07326889,0.21578225
10656.25,0.07268012,0.14406179
10660.15625,0.05356468,0.08357294
10664.0625,0.03779560,0.04550119
10667.96875,0.06321396,0.02599778
10671.875,0.02317524,0.00658088
10675.78125,0.06726365,-0.03286890
10679.6875,0.01159977,-0.09762696
10683.59375,0.02322822,-0.17345035
10687.5,-0.01163107,-0.23925044
10691.40625,0.01081029,-0.28316921
10695.3125,-0.00186716,-0.30521870
10699.21875,-0.00644735,-0.30941755
10703.125,-0.00632868,-0.30032703
10707.03125,-0.01091000,-0.28745067
10710.9375,-0.00108181,-0.28688803
10714.84375,0.01255458,-0.31169656
10718.75,-0.01874549,-0.35804039
10722.65625,-0.03483063,-0.40505314
10726.5625,-0.02311082,-0.43174103
10730.46875,-0.01674660,-0.43134597
10734.375,-0.02678508,-0.41027454
10738.28125,-0.01165234,-0.38057637
10742.1875,-0.02371779,-0.35512629
10746.09375,-0.00426259,-0.34372100
10750.0,-0.01481086,-0.34877753
10753.90625,-0.01175806,-0.36432242
10757.8125,-0.02282831,-0.38042617
10761.71875,-0.01652486,-0.38987294
10765.625,-0.02701456,-0.39192364
10769.53125,-0.01010652,-0.39036334
10773.4375,-0.01831447,-0.38759306
10777.34375,-0.03045525,-0.38182235
10781.25,-0.00309403,-0.37114570
10785.15625,-0.02351396,-0.35769039
10789.0625,-0.01068591,-0.34636158
10792.96875,-0.01804100,-0.34206101
10796.875,-0.00183028,-0.34794587
10800.78125,-0.02224563,-0.36345851
10804.6875,-0.02138342,-0.38347644
10808.59375,-0.01571410,-0.39984819
10812.5,-0.03207466,-0.40515661
10816.40625,-0.01951262,-0.39877746
10820.3125,-0.01252430,-0.38918716
10824.21875,-0.02329351,-0.38535154
10828.125,-0.02120601,-0.38584185
10832.03125,-0.02348569,-0.38110903
10835.9375,-0.01234797,-0.36626834
10839.84375,-0.01475957,-0.34736720
10843.75,-0.00810648,-0.33466151
10847.65625,-0.02439895,-0.33406037
10851.5625,-0.00372727,-0.34668103
10855.46875,-0.02247081,-0.37119687
10859.375,-0.01440524,-0.40123710
10863.28125,-0.03121958,-0.42352983
10867.1875,-0.03882307,-0.42646217
10871.09375,-0.01205871,-0.41313007
10875.0,-0.03384195,-0.40147811
10878.90625,-0.00391012,-0.40770608
10882.8125,-0.03777255,-0.43034741
10886.71875,-0.03636561,-0.45278841
10890.625,-0.03706585,-0.46051800
10894.53125,-0.01794257,-0.45207086
10898.4375,-0.03174294,-0.43406567
10902.34375,-0.03054317,-0.41296005
10906.25,-0.01265116,-0.39348599
10910.15625,-0.03367066,-0.37953693
10914.0625,-0.01691567,-0.37420097
10917.96875,0.00003358,-0.37814045
10921.875,-0.03258924,-0.38639525
10925.78125,-0.04323099,-0.39198866
10929.6875,-0.00404020,-0.39599586
10933.59375,-0.01311334,-0.40587330
10937.5,-0.04213332,-0.42122459
10941.40625,-0.01877592,-0.43015724
10945.3125,-0.04555493,-0.42234299
10949.21875,-0.01099647,-0.40034086
10953.125,-0.00778943,-0.37571535
10957.03125,-0.03491580,-0.35675219
10960.9375,-0.00768894,-0.34388047
10964.84375,-0.01622196,-0.33546260
10968.75,-0.01003108,-0.33224913
10972.65625,-0.00954990,-0.33533201
10976.5625,-0.02599901,-0.34364894
10980.46875,-0.01121271,-0.35575700
10984.375,-0.01859977,-0.37162122
10988.28125,-0.01239937,-0.38846862
10992.1875,-0.03064588,-0.39729625
10996.09375,-0.04617905,-0.39186415
11000.0,0.01416948,-0.38072878
11003.90625,-0.02765179,-0.37994191
11007.8125,-0.02652262,-0.39381891
11011.71875,-0.04236845,-0.41311902
11015.625,-0.00223933,-0.42938372
11019.53125,-0.03631821,-0.44014934
11023.4375,-0.04049689,-0.44383740
11027.34375,-0.02882404,-0.43954864
11031.25,-0.01686776,-0.42871124
11035.15625,-0.02050957,-0.41082710
11039.0625,-0.04550759,-0.38340455
11042.96875,-0.00520451,-0.35100758
11046.875,-0.00111237,-0.32627395
11050.78125,-0.01174395,-0.31640515
11054.6875,-0.02065502,-0.31642580
11058.59375,-0.01688001,-0.32007581
11062.5,0.00821289,-0.32898891
11066.40625,-0.02980584,-0.34668252
11070.3125,-0.01294365,-0.36982405
11074.21875,-0.01867180,-0.38788289
11078.125,-0.02560846,-0.38833198
11082.03125,-0.02069878,-0.36649418
11085.9375,-0.02199646,-0.33634120
11089.84375,0.00537393,-0.32538143
11093.75,-0.00884406,-0.34833255
11097.65625,-0.03093817,-0.38751310
11101.5625,-0.03261990,-0.40839469
11105.46875,-0.02240359,-0.39432362
11109.375,-0.00524936,-0.35921422
11113.28125,-0.01618971,-0.32875878
11117.1875,-0.01039743,-0.31771511
11121.09375,-0.00404692,-0.32367015
11125.0,-0.02272100,-0.33344170
11128.90625,-0.00797971,-0.33382377
11132.8125,-0.01398242,-0.32157159
11136.71875,-0.00331911,-0.30579045
11140.625,-0.01387073,-0.30008891
11144.53125,0.00576309,-0.31086731
11148.4375,-0.02039172,-0.33209673
11152.34375,-0.01639919,-0.35297510
11156.25,-0.02742679,-0.37171948
11160.15625,-0.01148797,-0.39788568
11164.0625,-0.01491967,-0.43684912
11167.96875,-0.04515975,-0.47518286
11171.875,-0.04062957,-0.48837081
11175.78125,-0.03323161,-0.46405286
11179.6875,-0.02724404,-0.41453204
11183.59375,0.00230525,-0.36612979
11187.5,-0.01857967,-0.33737874
11191.40625,-0.01779076,-0.32757598
11195.3125,-0.00972570,-0.32474041
11199.21875,-0.00948492,-0.31994766
11203.125,0.00346471,-0.31084290
11207.03125,-0.00931860,-0.29503062
11210.9375,-0.01120407,-0.26783061
11214.84375,0.00778723,-0.22936165
11218.75,0.02150247,-0.18763421
11222.65625,0.01733108,-0.14912169
11226.5625,0.01587245,-0.11004794
11230.46875,0.03630916,-0.06155999
11234.375,0.03972237,-0.00136078
11238.28125,0.04263852,0.06200357
11242.1875,0.07517636,0.11584269
11246.09375,0.06027326,0.15463257
11250.0,0.06899837,0.18347801
11253.90625,0.06659072,0.20834383
11257.8125,0.07856490,0.22621134
11261.71875,0.09021434,0.22936140
11265.625,0.06453174,0.21658938
11269.53125,0.07815747,0.19470181
11273.4375,0.06431364,0.16936612
11277.34375,0.04870340,0.13743524
11281.25,0.08118229,0.08963714
11285.15625,0.04193481,0.02333471
11289.0625,0.03491831,-0.04834854
11292.96875,0.00255108,-0.10632356
11296.875,0.04505749,-0.14429799
11300.78125,0.01068472,-0.17250142
11304.6875,0.00454559,-0.20583749
11308.59375,0.01106061,-0.25332862
11312.5,-0.00822460,-0.31323999
11316.40625,-0.00907036,-0.37152916
11320.3125,-0.02713418,-0.40811568
11324.21875,-0.02042351,-0.41091338
11328.125,-0.02147426,-0.38656294
11332.03125,-0.00448590,-0.35689506
11335.9375,0.00276167,-0.34198004
11339.84375,-0.03035223,-0.34556511
11343.75,-0.00495947,-0.35779753
11347.65625,-0.00807642,-0.36838087
11351.5625,-0.01583396,-0.37388819
11355.46875,-0.01893515,-0.37882143
11359.375,-0.01835414,-0.39709824
11363.28125,-0.03153658,-0.44957146
11367.1875,-0.01894969,-0.54974043
11371.09375,-0.07739183,-0.68209571
11375.0,-0.07478511,-0.78814310
11378.90625,-0.06268624,-0.76818585
11382.8125,-0.03185273,-0.49815783
11386.71875,0.05562211,0.13325757
11390.625,0.22321773,1.16745222
11394.53125,0.42461541,2.52461529
11398.4375,0.66506171,3.99328279
11402.34375,0.86786395,5.27567863
11406.25,0.99148053,6.07609987
11410.15625,1.01716363,6.19898272
11414.0625,0.92879087,5.61634970
11417.96875,0.72356600,4.47288227
11421.875,0.50707287,3.02395296
11425.78125,0.28831390,1.54147875
11429.6875,0.07480879,0.23799755
11433.59375,-0.07013791,-0.76634514
11437.5,-0.17393941,-1.43917620
11441.40625,-0.22866817,-1.80936444
11445.3125,-0.26542607,-1.93717766
11449.21875,-0.24274674,-1.89287341
11453.125,-0.20565204,-1.73991096
11457.03125,-0.19928992,-1.52164674
11460.9375,-0.16271991,-1.26467717
11464.84375,-0.10027874,-0.99755913
11468.75,-0.06647938,-0.75856262
11472.65625,-0.04089194,-0.58027637
11476.5625,-0.01916404,-0.47100165
11480.46875,-0.03238457,-0.41472933
11484.375,-0.01220628,-0.38878855
11488.28125,-0.00485140,-0.37982476
11492.1875,-0.00512975,-0.38288131
11496.09375,-0.02120308,-0.39153114
11500.0,-0.01801893,-0.39661193
11503.90625,-0.01011202,-0.39310032
11507.8125,-0.00254725,-0.38084680
11511.71875,-0.00566812,-0.35765451
11515.625,-0.01736246,-0.31905276
11519.53125,0.01089680,-0.26927716
11523.4375,0.01656493,-0.22657378
11527.34375,0.02801741,-0.21015123
11531.25,0.00054370,-0.22279726
11535.15625,0.00768535,-0.24960493
11539.0625,0.01947543,-0.26975900
11542.96875,0.00157564,-0.26585954
11546.875,0.01047004,-0.22978798
11550.78125,0.01363641,-0.16977745
11554.6875,0.04593879,-0.10894962
11558.59375,0.04530921,-0.06665143
11562.5,0.03997159,-0.03854578
11566.40625,0.03813721,-0.00038582
11570.3125,0.05812925,0.06653389
11574.21875,0.08686009,0.15760995
11578.125,0.08312074,0.25273958
11582.03125,0.10584882,0.33550891
11585.9375,0.10323369,0.40204805
11589.84375,0.13280432,0.45709205
11593.75,0.12069352,0.50759560
11597.65625,0.13612907,0.55955452
11601.5625,0.15127730,0.61773896
11605.46875,0.15419196,0.68678957
11609.375,0.17152239,0.77025932
11613.28125,0.18345316,0.86589819
11617.1875,0.18886791,0.96177787
11621.09375,0.22595671,1.04051578
11625.0,0.22459695,1.09284043
11628.90625,0.21821412,1.12837303
11632.8125,0.22814868,1.16897750
11636.71875,0.24723512,1.22969127
11640.625,0.24297638,1.30623734
11644.53125,0.27574676,1.37858486
11648.4375,0.27623361,1.42599893
11652.34375,0.26365876,1.44079745
11656.25,0.28156453,1.42919052
11660.15625,0.26092747,1.40241361
11664.0625,0.26836926,1.37060797
11667.96875,0.26791340,1.34268844
11671.875,0.23916566,1.32478321
11675.78125,0.26412928,1.31433046
11679.6875,0.26004940,1.29941022
11683.59375,0.23628239,1.26856303
11687.5,0.25402060,1.21997869
11691.40625,0.22869834,1.16077745
11695.3125,0.21065664,1.09960282
11699.21875,0.22666475,1.04016387
11703.125,0.20666620,0.98172206
11707.03125,0.18022308,0.92244506
11710.9375,0.19493720,0.85804766
11714.84375,0.18233198,0.78179687
11718.75,0.14496693,0.69070750
11722.65625,0.14528082,0.58841735
11726.5625,0.14935467,0.48278821
11730.46875,0.08075989,0.38414943
11734.375,0.12135980,0.30089223
11738.28125,0.08489083,0.23294738
11742.1875,0.06506098,0.17158511
11746.09375,0.09182528,0.10671106
11750.0,0.05576805,0.03667073
11753.90625,0.03353766,-0.02890129
11757.8125,0.05801908,-0.07907277
11761.71875,0.02324262,-0.11241561
11765.625,0.03814326,-0.13673532
11769.53125,0.02661922,-0.16263741
11773.4375,0.02948193,-0.19668688
11777.34375,0.01919044,-0.23549813
11781.25,0.00281417,-0.26693353
11785.15625,0.01046495,-0.28194508
11789.0625,0.01112281,-0.28611314
11792.96875,0.01247506,-0.29579180
11796.875,0.00929950,-0.32043719
11800.78125,-0.00356825,-0.34994745
11804.6875,-0.00549816,-0.36203113
11808.59375,0.00035524,-0.34372213
11812.5,-0.00182304,-0.30575785
11816.40625,0.03490573,-0.27431139
11820.3125,0.00699138,-0.26732305
11824.21875,0.00390579,-0.28090125
11828.125,0.00934893,-0.29967061
11832.03125,0.00276082,-0.31509942
11835.9375,0.01660852,-0.33023253
11839.84375,-0.00793763,-0.35097691
11843.75,-0.00099174,-0.37825227
11847.65625,-0.01659646,-0.40837532
11851.5625,-0.00002620,-0.43603042
11855.46875,-0.00885074,-0.45333147
11859.375,-0.03060025,-0.45025104
11863.28125,-0.01388338,-0.42335737
11867.1875,0.01135426,-0.38305753
11871.09375,0.00155771,-0.34648722
11875.0,0.00337429,-0.32525897
11878.90625,-0.00802873,-0.32369497
11882.8125,0.01866853,-0.34199500
11886.71875,0.00401896,-0.37235826
11890.625,-0.01674392,-0.39653778
11894.53125,-0.01078498,-0.39794341
11898.4375,0.01098365,-0.37699702
11902.34375,-0.01203077,-0.35103911
11906.25,0.01082749,-0.34105045
11910.15625,0.01719040,-0.35640940
11914.0625,-0.02059511,-0.38623789
11917.96875,-0.00796119,-0.40745881
11921.875,-0.00038966,-0.40478781
11925.78125,-0.00180941,-0.38072187
11929.6875,-0.00098258,-0.34896344
11933.59375,0.00986480,-0.32452437
11937.5,0.01221498,-0.31733289
11941.40625,0.00578522,-0.32778135
11945.3125,-0.00442301,-0.34730449
11949.21875,0.00332912,-0.36614743
11953.125,0.00390064,-0.38049632
11957.03125,-0.00190353,-0.39107388
11960.9375,-0.00820248,-0.39753619
11964.84375,-0.01058259,-0.39789361
11968.75,0.00780217,-0.39242554
11972.65625,0.00090090,-0.38434377
11976.5625,-0.00760991,-0.37661228
11980.46875,-0.00383526,-0.37056807
11984.375,0.01800110,-0.36612296
11988.28125,-0.01081615,-0.36221382
11992.1875,-0.00073212,-0.36091015
11996.09375,0.01312914,-0.36940873
12000.0,0.00117325,-0.39030710
12003.90625,-0.02073750,-0.41218835
12007.8125,0.00705367,-0.41787997
12011.71875,-0.00947184,-0.40057573
12015.625,0.00320595,-0.36926919
12019.53125,-0.00108881,-0.34290671
12023.4375,0.02176736,-0.33856553
12027.34375,0.00340809,-0.35738978
12031.25,-0.00822611,-0.38068819
12035.15625,0.00310171,-0.38530001
12039.0625,0.00125875,-0.36508325
12042.96875,-0.00097403,-0.33741751
12046.875,0.02235490,-0.32878172
12050.78125,0.01066372,-0.35015419
12054.6875,0.00399789,-0.38329899
12058.59375,-0.01749235,-0.39509732
12062.5,-0.00731227,-0.37007844
12066.40625,0.02864718,-0.32710469
12070.3125,0.01595860,-0.30126297
12074.21875,0.01326964,-0.31152040
12078.125,0.00974695,-0.34657064
12082.03125,-0.01442121,-0.37767375
12085.9375,0.00454063,-0.38393405
12089.84375,0.01559887,-0.36749229
12093.75,0.00893967,-0.34631205
12097.65625,-0.00219641,-0.33698162
12101.5625,0.01007615,-0.34671214
12105.46875,0.01479623,-0.37421420
12109.375,-0.00947804,-0.41111350
12113.28125,-0.00984348,-0.44570777
12117.1875,-0.00531998,-0.46983659
12121.09375,-0.01694076,-0.48208165
12125.0,-0.01145392,-0.48564005
12128.90625,-0.01027354,-0.48470429
12132.8125,-0.01414111,-0.48085871
12136.71875,-0.00417450,-0.47141817
12140.625,-0.01419863,-0.45283872
12144.53125,-0.00981073,-0.42726886
12148.4375,0.01219747,-0.40393239
12152.34375,0.00298625,-0.39094025
12156.25,0.00269553,-0.38688174
12160.15625,0.00016520,-0.38363472
12164.0625,0.00159692,-0.37668136
12167.96875,0.00558127,-0.37045056
12171.875,0.02151093,-0.37281540
12175.78125,-0.00203563,-0.38433498
12179.6875,-0.00264261,-0.39478767
12183.59375,0.00133281,-0.39211208
12187.5,0.01410785,-0.37368569
12191.40625,0.00413836,-0.34866828
12195.3125,0.02122559,-0.33062455
12199.21875,0.01353196,-0.32651812
12203.125,0.00603480,-0.33186224
12207.03125,0.01683492,-0.33775914
12210.9375,0.01944853,-0.34124509
12214.84375,-0.00598996,-0.34777623
12218.75,0.02008506,-0.36592138
12222.65625,0.01265706,-0.39773059
12226.5625,-0.00904969,-0.43073204
12230.46875,-0.00374535,-0.44313240
12234.375,-0.00656302,-0.42167687
12238.28125,0.01703931,-0.37367725
12242.1875,0.01794694,-0.32054967
12246.09375,0.02713262,-0.28167489
12250.0,0.00546127,-0.26631194
12253.90625,0.04415588,-0.27677533
12257.8125,0.01681044,-0.31014323
12261.71875,0.00592581,-0.35495412
12265.625,0.00574961,-0.39353147
12269.53125,0.00756156,-0.41165596
12273.4375,-0.00185157,-0.40579510
12277.34375,0.01935891,-0.38239202
12281.25,0.00541678,-0.35146275
12285.15625,0.01449652,-0.32128391
12289.0625,0.03049960,-0.29786846
12292.96875,0.02362272,-0.28405797
12296.875,0.02618193,-0.27581510
12300.78125,0.01766975,-0.26275873
12304.6875,0.04501736,-0.23561157
12308.59375,0.03046215,-0.19351804
12312.5,0.04239886,-0.14486068
12316.40625,0.07367685,-0.10016170
12320.3125,0.03614572,-0.06249857
12324.21875,0.07797912,-0.02597490
12328.125,0.07702005,0.01784449
12332.03125,0.06843986,0.07466940
12335.9375,0.09395899,0.14373338
12339.84375,0.11220510,0.21478178
12343.75,0.10324398,0.27114537
12347.65625,0.12264352,0.29705280
12351.5625,0.10593988,0.28286335
12355.46875,0.11538614,0.22871742
12359.375,0.09603326,0.14799139
12363.28125,0.06854106,0.06573647
12367.1875,0.08679688,0.00801931
12371.09375,0.05208297,-0.01326607
12375.0,0.07380164,-0.01010369
12378.90625,0.07144123,-0.01225915
12382.8125,0.07807834,-0.04360795
12386.71875,0.05139605,-0.10092220
12390.625,0.02970142,-0.16091804
12394.53125,0.05151010,-0.20842499
12398.4375,0.02477554,-0.25037044
12402.34375,0.03915034,-0.30080113
12406.25,0.01862365,-0.35888836
12410.15625,-0.00083722,-0.40609100
12414.0625,0.00621305,-0.42423704
12417.96875,0.00490371,-0.41407150
12421.875,0.01773341,-0.39534807
12425.78125,0.02004741,-0.38995013
12429.6875,0.00414947,-0.40489912
12433.59375,0.00706809,-0.42996597
12437.5,-0.00469593,-0.44980112
12441.40625,0.01255829,-0.45686498
12445.3125,0.00751975,-0.45406336
12449.21875,-0.01375089,-0.45165378
12453.125,0.00940804,-0.46624547
12457.03125,0.00167661,-0.51528800
12460.9375,-0.02882084,-0.60030109
12464.84375,-0.02964745,-0.68872237
12468.75,-0.02579062,-0.70469201
12472.65625,0.00236515,-0.53210056
12476.5625,0.05783966,-0.04141708
12480.46875,0.19170281,0.85093582
12484.375,0.39589664,2.11392045
12488.28125,0.63387525,3.57112765
12492.1875,0.83963370,4.93629503
12496.09375,1.00123632,5.90124655
12500.0,1.03619111,6.23556662
12503.90625,0.99683756,5.85803843
12507.8125,0.83359367,4.85719395
12511.71875,0.60315078,3.45688081
12515.625,0.36635849,1.93909585
12519.53125,0.15494722,0.55500722
12523.4375,-0.00195364,-0.53676897
12527.34375,-0.12339643,-1.28361273
12531.25,-0.18609871,-1.71263862
12535.15625,-0.21096747,-1.88905263
12539.0625,-0.22221838,-1.88191319
12542.96875,-0.18934295,-1.74888825
12546.875,-0.16527264,-1.53675556
12550.78125,-0.12278159,-1.28654289
12554.6875,-0.08086719,-1.03559148
12558.59375,-0.05272762,-0.81509203
12562.5,-0.02373133,-0.64527458
12566.40625,0.00088399,-0.53105181
12570.3125,0.00739420,-0.46143782
12574.21875,0.00219546,-0.41727594
12578.125,0.02057674,-0.38500187
12582.03125,0.01964879,-0.36349761
12585.9375,0.02976611,-0.35694036
12589.84375,0.01688569,-0.36373496
12593.75,0.02371754,-0.37401208
12597.65625,0.01454648,-0.37593257
12601.5625,0.01494001,-0.36385480
12605.46875,0.03316583,-0.34169009
12609.375,0.03370637,-0.31751522
12613.28125,0.03144625,-0.29489869
12617.1875,0.01859647,-0.27257878
12621.09375,0.05756051,-0.25122800
12625.0,0.03659375,-0.23427922
12628.90625,0.03988845,-0.22199947
12632.8125,0.06030577,-0.20917675
12636.71875,0.02894761,-0.18884139
12640.625,0.06562860,-0.15753794
12644.53125,0.05902039,-0.11781248
12648.4375,0.06147315,-0.07560419
12652.34375,0.08798131,-0.03525233
12656.25,0.06604666,0.00297309
12660.15625,0.07853865,0.04097655
12664.0625,0.11577278,0.08116987
12667.96875,0.07874411,0.12894560
12671.875,0.11460008,0.19179122
12675.78125,0.11988465,0.27161506
12679.6875,0.13867049,0.36214048
12683.59375,0.14755088,0.45516753
12687.5,0.15808991,0.54469573
12691.40625,0.18428677,0.62603247
12695.3125,0.18898919,0.69797587
12699.21875,0.19904539,0.76723200
12703.125,0.19464321,0.84392947
12707.03125,0.23088244,0.92929792
12710.9375,0.24679819,1.01296043
12714.84375,0.23923798,1.08558857
12718.75,0.26327947,1.14998603
12722.65625,0.26313791,1.21689796
12726.5625,0.27169973,1.29092324
12730.46875,0.29977417,1.36099565
12734.375,0.29864207,1.40636623
12738.28125,0.30065992,1.41424930
12742.1875,0.29076257,1.39177024
12746.09375,0.29367325,1.36122668
12750.0,0.28221196,1.34435892
12753.90625,0.29188409,1.34888816
12757.8125,0.29627341,1.36664784
12761.71875,0.28174788,1.38173068
12765.625,0.30487353,1.37987125
12769.53125,0.29010487,1.35442173
12773.4375,0.28094634,1.30766416
12777.34375,0.26069674,1.24588788
12781.25,0.27990153,1.17431140
12785.15625,0.24544175,1.09913564
12789.0625,0.23017867,1.02855623
12792.96875,0.23403284,0.96454763
12796.875,0.22116229,0.89788187
12800.78125,0.20717715,0.81775844
12804.6875,0.19162109,0.72472465
12808.59375,0.18037207,0.63157731
12812.5,0.15948533,0.55232555
12816.40625,0.15309046,0.49015105
12820.3125,0.15863016,0.43590891
12824.21875,0.13226339,0.37821689
12828.125,0.12441344,0.31248987
12832.03125,0.12655690,0.24069804
12835.9375,0.10092021,0.16859283
12839.84375,0.10166225,0.10521718
12843.75,0.07626225,0.05932672
12847.65625,0.09204278,0.03160684
12851.5625,0.08384747,0.01126776
12855.46875,0.07559275,-0.01778044
12859.375,0.07087034,-0.06695308
12863.28125,0.05099219,-0.13694441
12867.1875,0.05907885,-0.21692558
12871.09375,0.03009849,-0.28803453
12875.0,0.02407929,-0.33207098
12878.90625,0.03093516,-0.34244111
12882.8125,0.02020990,-0.32914716
12886.71875,0.03239647,-0.31349382
12890.625,0.04862548,-0.31436327
12894.53125,0.01888278,-0.33361131
12898.4375,0.02229832,-0.35502526
12902.34375,0.01292946,-0.36159116
12906.25,0.03364423,-0.35250852
12910.15625,0.03352014,-0.34006128
12914.0625,0.02965874,-0.33220559
12917.96875,0.02159617,-0.32404464
12921.875,0.02679248,-0.30805752
12925.78125,0.03864101,-0.28834322
12929.6875,0.03934182,-0.28054526
12933.59375,0.03692940,-0.29796004
12937.5,0.02381785,-0.33905500
12941.40625,0.01918147,-0.38759816
12945.3125,0.00491070,-0.42373222
12949.21875,0.02325682,-0.43570811
12953.125,0.01272757,-0.42371434
12957.03125,0.00937129,-0.39710131
12960.9375,0.02833533,-0.37007579
12964.84375,0.02264215,-0.35578880
12968.75,0.02106194,-0.35974523
12972.65625,0.03060139,-0.37718219
12976.5625,0.01613641,-0.39581347
12980.46875,-0.00169122,-0.40409631
12984.375,0.02647253,-0.40143421
12988.28125,0.03019575,-0.39809677
12992.1875,-0.00084940,-0.40264165
12996.09375,0.03195241,-0.41218609
13000.0,0.00386725,-0.41446063
13003.90625,0.01380126,-0.39771143
13007.8125,0.02788782,-0.36244819
13011.71875,0.02209036,-0.32573721
13015.625,0.04003551,-0.31067640
13019.53125,0.03096677,-0.32753223
13023.4375,0.01419754,-0.36388323
13027.34375,0.01417947,-0.39459208
13031.25,0.02773784,-0.40173465
13035.15625,0.00188229,-0.38604170
13039.0625,0.03473628,-0.36382282
13042.96875,0.02042205,-0.35359335
13046.875,0.02777569,-0.36072230
13050.78125,0.01854794,-0.37301752
13054.6875,0.01226066,-0.37252411
13058.59375,0.03319377,-0.35134974
13062.5,0.02079841,-0.31642181
13066.40625,0.03792773,-0.28300160
13070.3125,0.03672002,-0.26546395
13074.21875,0.05020455,-0.26897347
13078.125,0.01722544,-0.28599480
13082.03125,0.02866616,-0.30418089
13085.9375,0.03313914,-0.31905308
13089.84375,0.03346017,-0.33482593
13093.75,0.02465645,-0.35366616
13097.65625,0.00130279,-0.37138376
13101.5625,0.03191994,-0.38463607
13105.46875,0.02041520,-0.39521950
13109.375,0.00094956,-0.40562108
13113.28125,0.02835459,-0.41497427
13117.1875,0.00979251,-0.41892415
13121.09375,0.00248581,-0.41252869
13125.0,0.02025321,-0.39696124
13128.90625,0.02572032,-0.38160560
13132.8125,0.01718546,-0.37467241
13136.71875,0.01895208,-0.37399936
13140.625,0.01818583,-0.37052628
13144.53125,0.01855272,-0.35962495
13148.4375,0.02366436,-0.34816641
13152.34375,0.02448376,-0.35015911
13156.25,0.03428642,-0.37261400
13160.15625,-0.00559165,-0.40475255
13164.0625,0.01989552,-0.42423388
13167.96875,0.01018502,-0.41530743
13171.875,0.01727491,-0.38117149
13175.78125,0.02202243,-0.34235010
13179.6875,0.02806759,-0.32369563
13183.59375,0.03596994,-0.33622450
13187.5,0.01620910,-0.36662754
13191.40625,0.00762579,-0.38746634
13195.3125,0.01486399,-0.38163096
13199.21875,0.02783999,-0.35583797
13203.125,0.02955257,-0.32944396
13207.03125,0.03184591,-0.31401327
13210.9375,0.01977322,-0.30733114
13214.84375,0.02562367,-0.30532131
13218.75,0.03075439,-0.31349456
13222.65625,0.03275543,-0.34156150
13226.5625,0.01296870,-0.38779303
13230.46875,0.00935789,-0.43366542
13234.375,0.00017802,-0.45648393
13238.28125,0.00426509,-0.44717726
13242.1875,0.01861344,-0.41643053
13246.09375,0.01519397,-0.38491017
13250.0,0.02114312,-0.36753392
13253.90625,0.02579367,-0.36466947
13257.8125,0.00456904,-0.36629841
13261.71875,0.02290495,-0.36512128
13265.625,0.02400120,-0.36460462
13269.53125,0.02830765,-0.37269610
13273.4375,-0.00987443,-0.39204523
13277.34375,0.02930852,-0.41878456
13281.25,0.01468112,-0.44317135
13285.15625,-0.00970007,-0.44955921
13289.0625,0.00514336,-0.42696598
13292.96875,0.03050933,-0.38281810
13296.875,0.02083716,-0.33871445
13300.78125,0.02025609,-0.31381914
13304.6875,0.02819610,-0.31637597
13308.59375,0.03390667,-0.34274307
13312.5,0.01604533,-0.37652484
13316.40625,-0.00359218,-0.39648491
13320.3125,0.01653555,-0.39526162
13324.21875,0.03193401,-0.38672873
13328.125,0.00717665,-0.38944259
13332.03125,0.01409684,-0.40690979
13335.9375,0.00485677,-0.42582804
13339.84375,0.02002529,-0.42760423
13343.75,-0.00418291,-0.40186325
13347.65625,0.02604652,-0.35702959
13351.5625,0.02493668,-0.31903830
13355.46875,0.03728693,-0.31208953
13359.375,0.02157572,-0.33619058
13363.28125,0.01197216,-0.36528334
13367.1875,0.01680584,-0.36905453
13371.09375,0.02427243,-0.33742511
13375.0,0.02115819,-0.28785828
13378.90625,0.04632848,-0.25215927
13382.8125,0.04705770,-0.25129983
13386.71875,0.02034616,-0.27668872
13390.625,0.03092688,-0.29720482
13394.53125,0.01677125,-0.28761104
13398.4375,0.04204349,-0.24918549
13402.34375,0.05841831,-0.20130327
13406.25,0.04800467,-0.15630396
13410.15625,0.03736588,-0.10965545
13414.0625,0.08298499,-0.05359944
13417.96875,0.06836051,0.01149580
13421.875,0.10538687,0.08282244
13425.78125,0.07496876,0.15979585
13429.6875,0.11324226,0.23444669
13433.59375,0.13036549,0.28548053
13437.5,0.11891113,0.29361796
13441.40625,0.11164553,0.26200902
13445.3125,0.11508084,0.21578579
13449.21875,0.08888950,0.18102683
13453.125,0.09384808,0.16281721
13457.03125,0.10719164,0.14197646
13460.9375,0.10082373,0.09613542
13464.84375,0.06595699,0.02419419
13468.75,0.05812633,-0.05347061
13472.65625,0.07083102,-0.11536819
13476.5625,0.03255782,-0.15464558
13480.46875,0.05767423,-0.18013021
13484.375,0.03883757,-0.20756459
13488.28125,0.03673517,-0.24709104
13492.1875,0.02680633,-0.29557922
13496.09375,0.02832174,-0.33951858
13500.0,0.00375513,-0.36552131
13503.90625,0.01018560,-0.37134290
13507.8125,0.03445219,-0.36701742
13511.71875,0.02210225,-0.36215952
13515.625,-0.00232178,-0.35596412
13519.53125,0.02644671,-0.34505710
13523.4375,0.01705410,-0.33522123
13527.34375,0.03489422,-0.33738369
13531.25,0.01387378,-0.35456243
13535.15625,0.01381406,-0.37944415
13539.0625,-0.00892262,-0.40756929
13542.96875,0.01935434,-0.45058507
13546.875,-0.01145919,-0.53055215
13550.78125,-0.03054643,-0.65532613
13554.6875,-0.04068004,-0.79275316
13558.59375,-0.06603983,-0.86003447
13562.5,-0.03704225,-0.73632634
13566.40625,0.02771507,-0.29840550
13570.3125,0.14334756,0.52974933
13574.21875,0.33377686,1.72867322
13578.125,0.56457067,3.15774775
13582.03125,0.78054976,4.57177258
13585.9375,0.94248372,5.67927265
13589.84375,1.05080509,6.22364044
13593.75,1.02880025,6.06506824
13597.65625,0.88769847,5.23419905
13601.5625,0.66113478,3.92305541
13605.46875,0.43455547,2.40877748
13609.375,0.22984587,0.95530397
13613.28125,0.02891047,-0.25229824
13617.1875,-0.10207922,-1.12520254
13621.09375,-0.19446504,-1.65803659
13625.0,-0.22156109,-1.90334487
13628.90625,-0.21077846,-1.93868971
13632.8125,-0.21617734,-1.83449781
13636.71875,-0.19877195,-1.64002633
13640.625,-0.14519788,-1.39226663
13644.53125,-0.08677784,-1.12688291
13648.4375,-0.07355459,-0.87532836
13652.34375,-0.03677717,-0.65914828
13656.25,0.00436517,-0.49198341
