rel_ms,value_mv,normalized
0.0,0.00150876,-0.19768901
3.90625,-0.00146254,-0.33046880
7.8125,0.00793050,-0.39917558
11.71875,0.00162694,-0.40438727
15.625,-0.00593721,-0.37334117
19.53125,0.00495264,-0.33965054
23.4375,0.01638415,-0.32855403
27.34375,0.01222374,-0.34665430
31.25,-0.00746347,-0.38083667
35.15625,-0.01408115,-0.41151926
39.0625,-0.00625288,-0.42895469
42.96875,0.00184479,-0.43585294
46.875,-0.02642908,-0.43795839
50.78125,-0.00103185,-0.43729860
54.6875,-0.01323499,-0.43242893
58.59375,-0.00694903,-0.42044160
62.5,-0.00457076,-0.39976633
66.40625,-0.00171317,-0.37362322
70.3125,0.00714401,-0.34981680
74.21875,0.01483653,-0.33552739
78.125,0.00090580,-0.33229068
82.03125,0.01896752,-0.33600056
85.9375,-0.00529072,-0.34115499
89.84375,0.00703129,-0.34591433
93.75,0.01377625,-0.35367167
97.65625,0.00418409,-0.36794418
101.5625,-0.00574483,-0.38584903
105.46875,-0.00776244,-0.39946419
109.375,-0.00207347,-0.40348998
113.28125,0.00618243,-0.39873537
117.1875,-0.00845462,-0.38845554
121.09375,0.00127127,-0.37500915
125.0,0.00199111,-0.36129367
128.90625,0.01051224,-0.35227701
132.8125,0.00671814,-0.35185173
136.71875,0.00852668,-0.35771042
140.625,-0.00346392,-0.36143425
144.53125,0.00294631,-0.35616341
148.4375,0.01402887,-0.34324598
152.34375,0.02266164,-0.32873869
156.25,-0.01024918,-0.31646857
160.15625,0.02314564,-0.30926111
164.0625,0.02124782,-0.31166574
167.96875,0.01459162,-0.32286146
171.875,0.00850772,-0.33000296
175.78125,0.00168535,-0.31796676
179.6875,0.02306664,-0.28766152
183.59375,0.02921125,-0.25995114
187.5,0.02742531,-0.25841132
191.40625,0.02170426,-0.28865662
195.3125,0.01032868,-0.33430815
199.21875,-0.00834283,-0.37150475
203.125,0.00622019,-0.38665900
207.03125,0.01426775,-0.38128993
210.9375,-0.00895411,-0.36493111
214.84375,0.01136364,-0.34949055
218.75,0.01189626,-0.34683278
222.65625,0.01520596,-0.36162814
226.5625,-0.00724053,-0.38483539
230.46875,-0.00085607,-0.39993683
234.375,0.00196294,-0.39727521
238.28125,-0.00672075,-0.38081786
242.1875,0.02830791,-0.36152467
246.09375,0.00160696,-0.34549272
250.0,0.01163485,-0.33051729
253.90625,0.00472594,-0.31562135
257.8125,0.02699302,-0.30969816
261.71875,0.02403281,-0.32348844
265.625,0.01604123,-0.35223615
269.53125,-0.01766255,-0.37378109
273.4375,0.00987211,-0.36965570
277.34375,0.01810949,-0.34464282
281.25,0.02287806,-0.32094911
285.15625,0.00470745,-0.31582037
289.0625,0.03576319,-0.32651514
292.96875,0.00044941,-0.33296171
296.875,0.01151179,-0.31475341
300.78125,0.03472161,-0.26968569
304.6875,0.02914749,-0.21640742
308.59375,0.05871877,-0.17812775
312.5,0.04415541,-0.16350968
316.40625,0.04247964,-0.16109538
320.3125,0.05451991,-0.14906743
324.21875,0.05541552,-0.11017351
328.125,0.06271987,-0.04225315
332.03125,0.09476578,0.04004296
335.9375,0.10241240,0.11467046
339.84375,0.11779065,0.16689283
343.75,0.09815011,0.19494461
347.65625,0.13021792,0.20267282
351.5625,0.10684802,0.19219692
355.46875,0.12712479,0.16621301
359.375,0.09871677,0.13242620
363.28125,0.08881672,0.09874234
367.1875,0.09285608,0.06302536
371.09375,0.09343687,0.01357185
375.0,0.07369658,-0.05567256
378.90625,0.05543676,-0.13297825
382.8125,0.03748005,-0.19591366
386.71875,0.02860405,-0.23105153
390.625,0.04425354,-0.24556050
394.53125,0.04395841,-0.25862142
398.4375,0.02505000,-0.28293565
402.34375,0.01009331,-0.31688339
406.25,0.03034644,-0.35152233
410.15625,0.00217740,-0.37938106
414.0625,0.00730420,-0.39753273
417.96875,0.02214262,-0.40666768
421.875,-0.01309337,-0.40828553
425.78125,0.01804793,-0.40353745
429.6875,0.00613532,-0.39473414
433.59375,0.01425504,-0.38527879
437.5,0.01189352,-0.37752706
441.40625,0.01491476,-0.37203294
445.3125,0.01984560,-0.36920708
449.21875,-0.00028015,-0.37316623
453.125,0.01967855,-0.39519873
457.03125,-0.00027593,-0.44972381
460.9375,-0.01601496,-0.53978425
464.84375,-0.02995791,-0.63923717
468.75,-0.04046433,-0.68166357
472.65625,-0.01481812,-0.56480199
476.5625,0.05183259,-0.17861898
480.46875,0.17234182,0.54429758
484.375,0.38429859,1.57691276
488.28125,0.60579830,2.77602339
492.1875,0.81664705,3.90791154
496.09375,0.99474931,4.71451235
500.0,1.04107201,4.99836779
503.90625,0.97463799,4.69286633
507.8125,0.81280512,3.88161659
511.71875,0.60655826,2.75696325
515.625,0.37265354,1.54500592
519.53125,0.17391379,0.43677455
523.4375,-0.00731572,-0.45033699
527.34375,-0.10967027,-1.07702351
531.25,-0.17407718,-1.45929801
535.15625,-0.20677711,-1.63417900
539.0625,-0.24766417,-1.63834226
542.96875,-0.18084352,-1.51114559
546.875,-0.15442991,-1.30335736
550.78125,-0.11159924,-1.07107735
554.6875,-0.07270657,-0.86094129
558.59375,-0.03978599,-0.70093888
562.5,-0.01618274,-0.59800506
566.40625,-0.00789483,-0.53951943
570.3125,-0.01624316,-0.50156343
574.21875,0.01113716,-0.46432078
578.125,0.00606805,-0.42465031
582.03125,0.03055991,-0.39433697
585.9375,0.01539107,-0.38517636
589.84375,0.02091159,-0.39519456
593.75,0.01078148,-0.40944517
597.65625,0.01603981,-0.41353399
601.5625,0.02340413,-0.40497214
605.46875,0.00731959,-0.39242601
609.375,0.03061580,-0.38651395
613.28125,0.02789492,-0.38990465
617.1875,0.01743172,-0.39336661
621.09375,0.00574319,-0.38318470
625.0,0.04394670,-0.35378805
628.90625,0.03793107,-0.31059638
632.8125,0.03933463,-0.26291671
636.71875,0.04756923,-0.21978223
640.625,0.07745724,-0.18863995
644.53125,0.06089504,-0.16881572
648.4375,0.06896540,-0.14726861
652.34375,0.05713187,-0.10868480
656.25,0.10242276,-0.05103072
660.15625,0.10197058,0.01311145
664.0625,0.11268902,0.07025698
667.96875,0.10998191,0.11691722
671.875,0.13050070,0.15771033
675.78125,0.13456561,0.19776388
679.6875,0.14855066,0.23885316
683.59375,0.15083818,0.28080785
687.5,0.14676018,0.32442179
691.40625,0.18878955,0.37280962
695.3125,0.16532679,0.43021485
699.21875,0.19775893,0.49791956
703.125,0.21013850,0.57103950
707.03125,0.21176328,0.64172989
710.9375,0.24291350,0.70600504
714.84375,0.24388599,0.76649916
718.75,0.25110018,0.82850140
722.65625,0.27181938,0.89221233
726.5625,0.26816151,0.94794655
730.46875,0.29779217,0.98100418
734.375,0.29142752,0.98548120
738.28125,0.28635746,0.97464031
742.1875,0.27224052,0.97296387
746.09375,0.28203195,0.99368072
750.0,0.31151956,1.02645993
753.90625,0.29721165,1.04912460
757.8125,0.29236206,1.04689229
761.71875,0.31205022,1.01926017
765.625,0.27219394,0.97577691
769.53125,0.27456605,0.92814428
773.4375,0.26877281,0.88184780
777.34375,0.27327460,0.83430910
781.25,0.24913128,0.78268373
785.15625,0.23977384,0.73065352
789.0625,0.21723288,0.68365687
792.96875,0.23406217,0.63867623
796.875,0.22339253,0.58421785
800.78125,0.19614138,0.51321286
804.6875,0.19181971,0.43368378
808.59375,0.16233842,0.36398894
812.5,0.16028546,0.31638131
816.40625,0.17079374,0.28493288
820.3125,0.14450836,0.25033808
824.21875,0.15961914,0.19687934
828.125,0.11192832,0.12467019
832.03125,0.11834022,0.04675883
835.9375,0.09959980,-0.02297449
839.84375,0.09990364,-0.07758570
843.75,0.08481421,-0.11626615
847.65625,0.07058129,-0.14287981
851.5625,0.05994626,-0.16820343
855.46875,0.10080947,-0.20650710
859.375,0.05734836,-0.26084810
863.28125,0.02891262,-0.31471711
867.1875,0.04071337,-0.34621128
871.09375,0.05253270,-0.34853795
875.0,0.03477630,-0.33441180
878.90625,0.05392575,-0.32668331
882.8125,0.04685953,-0.34484378
886.71875,0.03060205,-0.39136508
890.625,0.02469534,-0.44715852
894.53125,0.01653336,-0.48367801
898.4375,0.01868429,-0.48365182
902.34375,0.00813183,-0.45504296
906.25,0.03919219,-0.42748299
910.15625,0.04293646,-0.43051994
914.0625,0.00803963,-0.47019041
917.96875,0.00833690,-0.52679771
921.875,0.00082417,-0.57324547
925.78125,0.01012763,-0.59120613
929.6875,-0.01581550,-0.57533604
933.59375,0.00764967,-0.53387952
937.5,0.03696967,-0.48609337
941.40625,0.01750046,-0.45057300
945.3125,0.03239511,-0.43304810
949.21875,0.01709209,-0.42648911
953.125,0.04533517,-0.42026463
957.03125,0.02839250,-0.40848789
960.9375,0.02389341,-0.39444128
964.84375,0.06240067,-0.38710976
968.75,0.03211765,-0.38761050
972.65625,0.02663892,-0.38148096
976.5625,0.05008598,-0.35235009
980.46875,0.05462337,-0.30051506
984.375,0.07624389,-0.24112976
988.28125,0.06144853,-0.18754108
992.1875,0.09158883,-0.14229527
996.09375,0.10152223,-0.10080075
1000.0,0.09207062,-0.05783436
1003.90625,0.10975163,-0.01304428
1007.8125,0.10395513,0.02502640
1011.71875,0.14621021,0.04298576
1015.625,0.11145995,0.03561224
1019.53125,0.11390109,0.01305069
1023.4375,0.10359650,-0.00943335
1027.34375,0.10711244,-0.02807722
1031.25,0.10426075,-0.05389545
1035.15625,0.10525525,-0.09895992
1039.0625,0.07958449,-0.16045633
1042.96875,0.07522224,-0.21941142
1046.875,0.05113729,-0.25695202
1050.78125,0.04942188,-0.27376780
1054.6875,0.08445557,-0.29197443
1058.59375,0.05691503,-0.33329511
1062.5,0.02915368,-0.39606959
1066.40625,0.01766023,-0.45787165
1070.3125,0.01817401,-0.49816757
1074.21875,0.02667054,-0.51324224
1078.125,0.02513816,-0.51138437
1082.03125,0.01417959,-0.50098091
1085.9375,0.00653117,-0.48730734
1089.84375,0.03824840,-0.47722170
1093.75,0.02606471,-0.47970894
1097.65625,0.01578904,-0.49965873
1101.5625,0.01737321,-0.53278935
1105.46875,0.01338487,-0.56604689
1109.375,-0.01606486,-0.58493984
1113.28125,0.01904647,-0.58663523
1117.1875,0.00106253,-0.58726799
1121.09375,-0.00605981,-0.61390370
1125.0,-0.01545079,-0.68613523
1128.90625,-0.01734802,-0.79474866
1132.8125,-0.05593576,-0.88524532
1136.71875,-0.05721215,-0.86196172
1140.625,0.00748730,-0.61822820
1144.53125,0.10487120,-0.07539892
1148.4375,0.24355204,0.78434861
1152.34375,0.47284836,1.89297462
1156.25,0.69355822,3.08825350
1160.15625,0.90449291,4.13924646
1164.0625,1.01322520,4.80665922
1167.96875,1.05557466,4.91823292
1171.875,0.96211201,4.43123198
1175.78125,0.76819289,3.45420194
1179.6875,0.53575432,2.21073055
1183.59375,0.25351939,0.95538568
1187.5,0.10512590,-0.11581894
1191.40625,-0.04687467,-0.91003191
1195.3125,-0.14736331,-1.42240107
1199.21875,-0.20813003,-1.69350839
1203.125,-0.21844915,-1.77626204
1207.03125,-0.20454396,-1.72039807
1210.9375,-0.18361257,-1.56861377
1214.84375,-0.14655761,-1.36032760
1218.75,-0.08463909,-1.13580811
1222.65625,-0.07515311,-0.93270504
1226.5625,-0.01961025,-0.77679592
1230.46875,-0.00838653,-0.67447764
1234.375,-0.00615724,-0.61309290
1238.28125,0.00841229,-0.57247013
1242.1875,0.00556579,-0.54101956
1246.09375,0.02728205,-0.52060652
1250.0,0.02484600,-0.51469004
1253.90625,0.01502362,-0.51543379
1257.8125,0.00939746,-0.50841147
1261.71875,0.02722190,-0.48925751
1265.625,0.03621463,-0.46834990
1269.53125,0.02468444,-0.45714718
1273.4375,0.03263358,-0.45587295
1277.34375,0.02493732,-0.45688450
1281.25,0.03240517,-0.45487866
1285.15625,0.03058808,-0.44950420
1289.0625,0.04048252,-0.43984553
1292.96875,0.02212622,-0.42171454
1296.875,0.05171948,-0.39297491
1300.78125,0.04546823,-0.35833257
1304.6875,0.05729576,-0.32572687
1308.59375,0.05423185,-0.29959628
1312.5,0.06806812,-0.27900872
1316.40625,0.05786794,-0.25971046
1320.3125,0.09214503,-0.23478146
1324.21875,0.06519762,-0.19468574
1328.125,0.08156049,-0.13371822
1332.03125,0.10586415,-0.06023977
1335.9375,0.13018474,0.00561153
1339.84375,0.12611617,0.05071969
1343.75,0.13045640,0.08360980
1347.65625,0.12742551,0.12692986
1351.5625,0.15369405,0.19568124
1355.46875,0.16749316,0.28354257
1359.375,0.19994034,0.37005436
1363.28125,0.19910924,0.44005048
1367.1875,0.18523255,0.49439254
1371.09375,0.23966014,0.54362100
1375.0,0.22204086,0.59678155
1378.90625,0.22721730,0.65579849
1382.8125,0.26586822,0.71525675
1386.71875,0.25724673,0.76848936
1390.625,0.26225173,0.81517756
1394.53125,0.27712351,0.85958040
1398.4375,0.29138327,0.90311873
1402.34375,0.29872179,0.94317383
1406.25,0.27458468,0.97525692
1410.15625,0.31801772,0.99202949
1414.0625,0.30696538,0.98626602
1417.96875,0.29121327,0.96014142
1421.875,0.28469038,0.92660737
1425.78125,0.28024444,0.89798272
1429.6875,0.28935763,0.87718803
1433.59375,0.27480999,0.86091006
1437.5,0.26689810,0.84517515
1441.40625,0.27817667,0.82523787
1445.3125,0.26416364,0.79497659
1449.21875,0.24550265,0.74966872
1453.125,0.24872690,0.68861043
1457.03125,0.24536699,0.61721641
1460.9375,0.20436865,0.54753101
1464.84375,0.19844683,0.49052340
1468.75,0.20495658,0.44447604
1472.65625,0.19013691,0.39482749
1476.5625,0.17212373,0.32694781
1480.46875,0.17138985,0.23858723
1484.375,0.13266729,0.14289479
1488.28125,0.11660089,0.05949214
1492.1875,0.11299630,-0.00163433
1496.09375,0.11439431,-0.04784409
1500.0,0.09343892,-0.09379568
1503.90625,0.08779265,-0.14554815
1507.8125,0.07319364,-0.19598779
1511.71875,0.06932621,-0.23393093
1515.625,0.05722060,-0.25657606
1519.53125,0.06681929,-0.27350780
1523.4375,0.06569265,-0.29760587
1527.34375,0.04472598,-0.33152020
1531.25,0.04290928,-0.36499056
1535.15625,0.03386702,-0.38620803
1539.0625,0.04316176,-0.39416498
1542.96875,0.03427142,-0.39918134
1546.875,0.04918025,-0.41200086
1550.78125,0.01414643,-0.43346643
1554.6875,0.02924081,-0.45593101
1558.59375,0.02813816,-0.47277161
1562.5,0.01669060,-0.48308909
1566.40625,0.02647740,-0.48886156
1570.3125,0.00089503,-0.49236554
1574.21875,0.04246091,-0.49641255
1578.125,-0.00002007,-0.50306404
1582.03125,0.02632175,-0.51090682
1585.9375,0.00116406,-0.51545560
1589.84375,0.02788420,-0.51284379
1593.75,0.00903031,-0.50360513
1597.65625,0.01524441,-0.49512655
1601.5625,0.01381555,-0.50000876
1605.46875,0.02638093,-0.52596670
1609.375,0.00951974,-0.56301117
1613.28125,-0.02174794,-0.58561599
1617.1875,0.00557677,-0.57426256
1621.09375,0.01820722,-0.53328216
1625.0,0.01261319,-0.48526570
1628.90625,0.02976005,-0.45143828
1632.8125,0.03619284,-0.43630326
1636.71875,0.02670502,-0.42507926
1640.625,0.01613664,-0.39701858
1644.53125,0.05724328,-0.34555110
1648.4375,0.06127779,-0.28394166
1652.34375,0.05320652,-0.23128164
1656.25,0.09121282,-0.19628794
1660.15625,0.07107334,-0.17216054
1664.0625,0.07073421,-0.14358753
1667.96875,0.09089281,-0.10093976
1671.875,0.11282720,-0.04891729
1675.78125,0.09404562,-0.00155541
1679.6875,0.13200366,0.02858381
1683.59375,0.09877440,0.03682774
1687.5,0.11950323,0.02589265
1691.40625,0.11077397,0.00083445
1695.3125,0.09651725,-0.03515170
1699.21875,0.10378812,-0.08048669
1703.125,0.06409308,-0.13273117
1707.03125,0.08898274,-0.18730380
1710.9375,0.06236555,-0.23748413
1714.84375,0.04734138,-0.27604800
1718.75,0.05420170,-0.29976115
1722.65625,0.05018324,-0.31278962
1726.5625,0.03999084,-0.32476774
1730.46875,0.04911869,-0.34588754
1734.375,0.03351420,-0.38149947
1738.28125,0.03232757,-0.42738089
1742.1875,0.00766110,-0.47065929
1746.09375,0.01332571,-0.49846008
1750.0,0.01726601,-0.50645483
1753.90625,0.00918751,-0.49981678
1757.8125,0.01222792,-0.48949066
1761.71875,0.01315652,-0.48810989
1765.625,0.01775965,-0.50333208
1769.53125,0.00606235,-0.52991068
1773.4375,0.00265377,-0.55066377
1777.34375,-0.00396767,-0.55151892
1781.25,-0.00689575,-0.53972572
1785.15625,0.01286936,-0.54659826
1789.0625,-0.01207160,-0.60706311
1792.96875,-0.01735374,-0.72819853
1796.875,-0.06113923,-0.86840373
1800.78125,-0.08082478,-0.94135183
1804.6875,-0.05805742,-0.84257710
1808.59375,0.02508100,-0.48271480
1812.5,0.14115658,0.18596925
1816.40625,0.31104395,1.14723790
1820.3125,0.51950210,2.29904747
1824.21875,0.75505215,3.44927645
1828.125,0.93641090,4.35500383
1832.03125,1.02901411,4.80317211
1835.9375,0.98075420,4.69017363
1839.84375,0.86863500,4.05263090
1843.75,0.66925234,3.03909492
1847.65625,0.45394990,1.84980810
1851.5625,0.21578448,0.67668343
1855.46875,0.04902723,-0.33681682
1859.375,-0.10432760,-1.10727334
1863.28125,-0.18628071,-1.60104096
1867.1875,-0.27206174,-1.82378399
1871.09375,-0.22801057,-1.82099366
1875.0,-0.20999122,-1.67274559
1878.90625,-0.16197008,-1.46660542
1882.8125,-0.14804794,-1.26433003
1886.71875,-0.10035404,-1.08937442
1890.625,-0.07480404,-0.93885487
1894.53125,-0.05344804,-0.80391091
1898.4375,-0.02916391,-0.68432403
1902.34375,-0.01291206,-0.59080362
1906.25,0.01438581,-0.53445035
1910.15625,0.00192465,-0.51314688
1914.0625,-0.00554370,-0.51053494
1917.96875,0.00685563,-0.50997794
1921.875,0.00865794,-0.50683635
1925.78125,-0.00121674,-0.50583625
1929.6875,0.02156283,-0.50956291
1933.59375,-0.01370209,-0.51220727
1937.5,0.00772372,-0.50472498
1941.40625,0.01984604,-0.48389596
1945.3125,-0.00233134,-0.45507404
1949.21875,0.02025041,-0.42915773
1953.125,0.03397288,-0.41619661
1957.03125,0.02683953,-0.41532078
1960.9375,0.00448292,-0.41160506
1964.84375,0.01986498,-0.38972744
1968.75,0.04773429,-0.34959319
1972.65625,0.04140826,-0.30393302
1976.5625,0.04315977,-0.26452422
1980.46875,0.05461593,-0.23524266
1984.375,0.06463064,-0.21330079
1988.28125,0.05475849,-0.19156869
1992.1875,0.06768674,-0.16186300
1996.09375,0.08142185,-0.11887372
2000.0,0.08232233,-0.06121217
2003.90625,0.09697100,0.00928221
2007.8125,0.12440880,0.08739664
2011.71875,0.10796852,0.16441323
2015.625,0.15387002,0.22994971
2019.53125,0.16481014,0.27823126
2023.4375,0.13345285,0.31460914
2027.34375,0.16422224,0.35165367
2031.25,0.18195704,0.39846197
2035.15625,0.18055081,0.45759058
2039.0625,0.19240050,0.52830553
2042.96875,0.20969684,0.60686165
2046.875,0.23217060,0.68623513
2050.78125,0.22728381,0.75908214
2054.6875,0.26468986,0.82054168
2058.59375,0.25470105,0.86933166
2062.5,0.25742513,0.90739137
2066.40625,0.28235710,0.93763047
2070.3125,0.27757329,0.96279502
2074.21875,0.27828652,0.98571283
2078.125,0.27232546,1.00566304
2082.03125,0.29911941,1.01410091
2085.9375,0.28673655,1.00009882
2089.84375,0.27279112,0.96200770
2093.75,0.25316197,0.91014302
2097.65625,0.27208430,0.85876924
2101.5625,0.24813341,0.81939769
2105.46875,0.23432775,0.79800862
2109.375,0.24353983,0.79064447
2113.28125,0.24125931,0.78170329
2117.1875,0.24340752,0.75228798
2121.09375,0.22081795,0.69347590
2125.0,0.21592201,0.61321485
2128.90625,0.17990886,0.53120691
2132.8125,0.18240456,0.46443376
2136.71875,0.17204097,0.41452622
2140.625,0.16872138,0.36904103
2144.53125,0.14766033,0.31483045
2148.4375,0.14399005,0.24884106
2152.34375,0.11664457,0.17675203
2156.25,0.11571259,0.10467908
2160.15625,0.10556116,0.03514460
2164.0625,0.07525656,-0.03049515
2167.96875,0.08258582,-0.09006833
2171.875,0.06745100,-0.14170676
2175.78125,0.03987677,-0.18541215
2179.6875,0.06628425,-0.22349285
2183.59375,0.04312799,-0.25795349
2187.5,0.03055099,-0.28688604
2191.40625,0.03016881,-0.30669686
2195.3125,0.03085796,-0.31800506
2199.21875,0.04235637,-0.32574975
2203.125,0.01785988,-0.33422041
2207.03125,0.02160303,-0.34556043
2210.9375,0.02895730,-0.36161122
2214.84375,0.01583702,-0.38274980
2218.75,0.01959966,-0.40561876
2222.65625,-0.00125326,-0.42586294
2226.5625,0.01171521,-0.44309443
2230.46875,0.00004043,-0.46032280
2234.375,0.01214645,-0.47787178
2238.28125,-0.01405737,-0.49082333
2242.1875,-0.01244964,-0.49534780
2246.09375,0.01121414,-0.49513075
2250.0,-0.00713422,-0.49704275
2253.90625,-0.00972909,-0.50244927
2257.8125,-0.00501007,-0.50739074
2261.71875,-0.01461538,-0.50938523
2265.625,0.00936743,-0.50973856
2269.53125,-0.02173541,-0.51029146
2273.4375,-0.00850390,-0.51180691
2277.34375,-0.00225517,-0.51483715
2281.25,-0.00709323,-0.51811266
2285.15625,-0.01449528,-0.51713514
2289.0625,-0.01380986,-0.50858408
2292.96875,0.00383052,-0.49482507
2296.875,-0.01075088,-0.48055670
2300.78125,0.01316554,-0.46602073
2304.6875,-0.00806740,-0.44575682
2308.59375,0.00945498,-0.41361022
2312.5,0.02352054,-0.36806881
2316.40625,0.01601547,-0.31422114
2320.3125,0.04761350,-0.26244882
2324.21875,0.04880394,-0.22250688
2328.125,0.04591721,-0.19489765
2332.03125,0.04905524,-0.17007363
2335.9375,0.05651715,-0.13890406
2339.84375,0.08252045,-0.10057551
2343.75,0.07276310,-0.05816958
2347.65625,0.07279854,-0.01332240
2351.5625,0.08654029,0.02842745
2355.46875,0.11437111,0.05255888
2359.375,0.08584173,0.04422606
2363.28125,0.08519135,0.00072894
2367.1875,0.07059874,-0.06750864
2371.09375,0.06843722,-0.14407323
2375.0,0.03342482,-0.21289979
2378.90625,0.03487065,-0.26434216
2382.8125,0.03408172,-0.30032411
2386.71875,0.02237613,-0.33232725
2390.625,0.01288515,-0.37259403
2394.53125,0.00085882,-0.42597315
2398.4375,0.00048904,-0.48598000
2402.34375,-0.00993506,-0.53522640
2406.25,-0.03302002,-0.55327392
2410.15625,-0.02081663,-0.53166103
2414.0625,-0.00265159,-0.48383853
2417.96875,0.00896003,-0.43754935
2421.875,0.01106202,-0.41580686
2425.78125,-0.01022978,-0.42507732
2429.6875,-0.00115877,-0.45820817
2433.59375,-0.00134611,-0.50226575
2437.5,-0.02088091,-0.54267085
2441.40625,-0.03345087,-0.56769365
2445.3125,-0.01386707,-0.57586002
2449.21875,-0.03826670,-0.57949102
2453.125,-0.02733930,-0.60003507
2457.03125,-0.02800392,-0.65573442
2460.9375,-0.06967722,-0.74438417
2464.84375,-0.07022873,-0.82993841
2468.75,-0.06189753,-0.84020966
2472.65625,-0.04765262,-0.67674148
2476.5625,0.02996929,-0.24153398
2480.46875,0.17294064,0.51830578
2484.375,0.37913308,1.56615508
2488.28125,0.58909070,2.75841689
2492.1875,0.82053888,3.86900973
2496.09375,0.96276766,4.65200710
2500.0,1.01305628,4.91935110
2503.90625,0.96231616,4.60136080
2507.8125,0.78942215,3.76759100
2511.71875,0.56765962,2.60227680
2515.625,0.33208671,1.34251297
2519.53125,0.10136064,0.20196797
2523.4375,-0.03518892,-0.68667245
2527.34375,-0.16681103,-1.28543746
2531.25,-0.22182964,-1.62375152
2535.15625,-0.23298179,-1.75648725
2539.0625,-0.25549799,-1.73447514
2542.96875,-0.23221929,-1.59963369
2546.875,-0.17242679,-1.39529514
2550.78125,-0.14057691,-1.16981924
2554.6875,-0.09604966,-0.96603131
2558.59375,-0.07940671,-0.80880558
2562.5,-0.04195913,-0.70114052
2566.40625,-0.04289744,-0.62926090
2570.3125,-0.03276505,-0.57466549
2574.21875,-0.01178319,-0.52709609
2578.125,-0.02300150,-0.48905817
2582.03125,-0.00488089,-0.46920699
2585.9375,0.01572301,-0.47012034
2589.84375,-0.03230543,-0.48094052
2593.75,-0.02017800,-0.48515552
2597.65625,0.00333513,-0.47639269
2601.5625,-0.01061670,-0.46162981
2605.46875,0.00651572,-0.44965720
2609.375,-0.01781658,-0.44229239
2613.28125,0.00029982,-0.43677160
2617.1875,-0.00312989,-0.43164021
2621.09375,0.00308463,-0.42714882
2625.0,0.00850469,-0.42021149
2628.90625,-0.00653251,-0.40240663
2632.8125,-0.00072391,-0.36769232
2636.71875,0.03353181,-0.32211342
2640.625,0.02538395,-0.28074804
2644.53125,0.02884399,-0.25382513
2648.4375,0.03334286,-0.23835452
2652.34375,0.04507294,-0.22134410
2656.25,0.03447431,-0.18881525
2660.15625,0.04453772,-0.13553263
2664.0625,0.08098099,-0.06882277
2667.96875,0.07654329,-0.00064381
2671.875,0.09490099,0.06386176
2675.78125,0.08792248,0.12701805
2679.6875,0.12267029,0.18969443
2683.59375,0.12164735,0.24624972
2687.5,0.13494495,0.28936079
2691.40625,0.14763616,0.31986904
2695.3125,0.14347661,0.35283414
2699.21875,0.14263158,0.40983978
2703.125,0.16396618,0.49814740
2707.03125,0.20800522,0.59880883
2710.9375,0.21521725,0.68279636
2714.84375,0.20607294,0.73809904
2718.75,0.21656291,0.77514565
2722.65625,0.24175674,0.80947357
2726.5625,0.23549281,0.84691381
2730.46875,0.22906505,0.88235724
2734.375,0.26582819,0.90654552
2738.28125,0.26110843,0.91717416
2742.1875,0.22861108,0.92470950
2746.09375,0.25710613,0.94095904
2750.0,0.26324645,0.96274555
2753.90625,0.26654544,0.97432750
2757.8125,0.26044512,0.96517760
2761.71875,0.24747163,0.93968022
2765.625,0.24887691,0.90969121
2769.53125,0.24772422,0.88179207
2773.4375,0.23373426,0.85220522
2777.34375,0.22419739,0.81077677
2781.25,0.23445694,0.75004888
2785.15625,0.19803181,0.67461133
2789.0625,0.19447681,0.60158461
2792.96875,0.16303132,0.54746372
2796.875,0.18222937,0.51309329
2800.78125,0.17373967,0.48357493
2804.6875,0.15830924,0.44250336
2808.59375,0.15065660,0.38407493
2812.5,0.13295808,0.31323835
2816.40625,0.12002037,0.23867853
2820.3125,0.11014974,0.16643424
2824.21875,0.09020222,0.09794019
2828.125,0.09708352,0.03347290
2832.03125,0.06857816,-0.02306706
2835.9375,0.04571859,-0.06701157
2839.84375,0.06457035,-0.10245530
2843.75,0.06830793,-0.14205410
2847.65625,0.02693370,-0.19283620
2851.5625,0.03022049,-0.24815270
2855.46875,0.01681815,-0.29673839
2859.375,0.01468142,-0.33440602
2863.28125,0.01458453,-0.36501279
2867.1875,-0.00553782,-0.39435562
2871.09375,0.00188159,-0.42550308
2875.0,-0.01604662,-0.45752397
2878.90625,-0.00849690,-0.48538992
2882.8125,-0.01872631,-0.50116962
2886.71875,-0.01964702,-0.49929857
2890.625,-0.02968810,-0.48483160
2894.53125,0.00377091,-0.47454640
2898.4375,-0.00629946,-0.48323452
2902.34375,-0.03673033,-0.50862920
2906.25,-0.02198955,-0.53496033
2910.15625,-0.02379954,-0.54894936
2914.0625,-0.02481415,-0.54706562
2917.96875,-0.03451389,-0.53203481
2921.875,-0.00860024,-0.50976038
2925.78125,-0.02278496,-0.48847923
2929.6875,-0.01267795,-0.47624806
2933.59375,-0.01210450,-0.47604704
2937.5,-0.00189537,-0.48097047
2941.40625,-0.03996063,-0.47692704
2945.3125,0.00315082,-0.45583749
2949.21875,-0.00168731,-0.42539111
2953.125,-0.00880766,-0.40239301
2957.03125,0.01469606,-0.39777300
2960.9375,-0.00898754,-0.40789673
2964.84375,0.00169030,-0.41741985
2968.75,-0.01280148,-0.41073611
2972.65625,0.01494278,-0.38241601
2976.5625,0.00970408,-0.33816144
2980.46875,0.00969381,-0.28906971
2984.375,0.04886332,-0.24544050
2988.28125,0.02885732,-0.21069251
2992.1875,0.04204157,-0.17845067
2996.09375,0.04892264,-0.13857536
3000.0,0.05101482,-0.08835319
3003.90625,0.07416873,-0.03784144
3007.8125,0.08278809,-0.00300503
3011.71875,0.08231975,0.00801478
3015.625,0.05159473,0.00067414
3019.53125,0.09145276,-0.01387377
3023.4375,0.07221080,-0.02806444
3027.34375,0.05670691,-0.04025588
3031.25,0.07161882,-0.05510123
3035.15625,0.06285695,-0.08255584
3039.0625,0.03446872,-0.13183270
3042.96875,0.06721183,-0.20287503
3046.875,0.01372803,-0.28095213
3050.78125,-0.00131814,-0.34281698
3054.6875,-0.00231668,-0.37599844
3058.59375,0.02163902,-0.39084601
3062.5,-0.00338690,-0.40807891
3066.40625,-0.01053827,-0.43772873
3070.3125,-0.01062117,-0.47351900
3074.21875,-0.01995702,-0.50195056
3078.125,-0.02326092,-0.51292950
3082.03125,-0.02425106,-0.50634736
3085.9375,-0.00917057,-0.49230775
3089.84375,-0.00617700,-0.48325476
3093.75,-0.03158369,-0.48517615
3097.65625,-0.01637571,-0.49741921
3101.5625,-0.01001243,-0.51714295
3105.46875,-0.03269411,-0.53976226
3109.375,-0.02627422,-0.55891526
3113.28125,-0.03416665,-0.57160598
3117.1875,-0.04090750,-0.58411229
3121.09375,-0.03208380,-0.61188853
3125.0,-0.05583264,-0.67062169
3128.90625,-0.05774488,-0.75907183
3132.8125,-0.08137515,-0.83979392
3136.71875,-0.07413037,-0.83026141
3140.625,-0.04272641,-0.61790687
3144.53125,0.04922523,-0.10205732
3148.4375,0.21505357,0.75266743
3152.34375,0.42717949,1.87783217
3156.25,0.64978629,3.09750557
3160.15625,0.86725569,4.16486025
3164.0625,0.99863684,4.83201122
3167.96875,1.00886106,4.93149948
3171.875,0.92968374,4.43548727
3175.78125,0.71447510,3.46417880
3179.6875,0.49688420,2.23846078
3183.59375,0.25553373,0.99980354
3187.5,0.06653629,-0.06403531
3191.40625,-0.09473437,-0.85765952
3195.3125,-0.17034952,-1.37348449
3199.21875,-0.23650824,-1.65620053
3203.125,-0.24278772,-1.76130128
3207.03125,-0.26258594,-1.73228705
3210.9375,-0.22419359,-1.60266054
3214.84375,-0.18945225,-1.40722322
3218.75,-0.14344120,-1.18513024
3222.65625,-0.10777839,-0.97314155
3226.5625,-0.07091217,-0.79770690
3230.46875,-0.04812258,-0.67066634
3234.375,-0.03431710,-0.58935106
3238.28125,-0.03200489,-0.54225624
3242.1875,-0.01828543,-0.51744890
3246.09375,-0.00735975,-0.50603658
3250.0,-0.02711130,-0.49990967
3253.90625,-0.01514473,-0.49228039
3257.8125,-0.01502933,-0.48251906
3261.71875,-0.00744560,-0.47607356
3265.625,-0.01260869,-0.47689337
3269.53125,-0.01060575,-0.48153961
3273.4375,-0.02064651,-0.48186243
3277.34375,-0.00655374,-0.47245046
3281.25,-0.01562784,-0.45481062
3285.15625,0.00421797,-0.43495312
3289.0625,-0.00023158,-0.41690323
3292.96875,0.00488314,-0.39764249
3296.875,-0.00243406,-0.36898211
3300.78125,0.02225456,-0.32581541
3304.6875,0.02579465,-0.27269426
3308.59375,0.03326198,-0.22210714
3312.5,0.05567557,-0.18544051
3316.40625,0.03494797,-0.16367954
3320.3125,0.05727320,-0.14661126
3324.21875,0.04923042,-0.12189084
3328.125,0.06395692,-0.08455703
3332.03125,0.07273836,-0.03799776
3335.9375,0.08124682,0.01274923
3339.84375,0.09624305,0.06738826
3343.75,0.09547493,0.12926720
3347.65625,0.11083546,0.19716373
3351.5625,0.12835887,0.26007798
3355.46875,0.15478113,0.30580023
3359.375,0.13575110,0.33708927
3363.28125,0.13630795,0.37391430
3367.1875,0.16424365,0.43529600
3371.09375,0.18302342,0.52202022
3375.0,0.19562191,0.61837840
3378.90625,0.20575562,0.70538849
3382.8125,0.22938024,0.77076685
3386.71875,0.23671229,0.81252718
3390.625,0.23336597,0.83776593
3394.53125,0.23630208,0.85641825
3398.4375,0.24467419,0.87400573
3402.34375,0.25025222,0.89044398
3406.25,0.25625160,0.90486866
3410.15625,0.24318266,0.91890585
3414.0625,0.25823709,0.93425018
3417.96875,0.25898084,0.94903487
3421.875,0.26071388,0.95791727
3425.78125,0.25743872,0.95486677
3429.6875,0.26471168,0.93668509
3433.59375,0.24512731,0.90595788
3437.5,0.23989323,0.86964470
3441.40625,0.24418074,0.83320874
3445.3125,0.22635835,0.79689354
3449.21875,0.22238687,0.75704324
3453.125,0.21765961,0.70932364
3457.03125,0.20389462,0.65211540
3460.9375,0.19053911,0.58845568
3464.84375,0.17352672,0.52319598
3468.75,0.17218980,0.45715040
3472.65625,0.15414356,0.38545719
3476.5625,0.13403894,0.30291194
3480.46875,0.12649250,0.21124141
3484.375,0.10213840,0.12189501
3488.28125,0.09401177,0.05085753
3492.1875,0.07217026,0.00705921
3496.09375,0.07630731,-0.01635640
3500.0,0.09073423,-0.03721180
3503.90625,0.05885121,-0.06884747
3507.8125,0.06640908,-0.11081489
3511.71875,0.04897111,-0.15459423
3515.625,0.03328983,-0.19521472
3519.53125,0.05106570,-0.23544779
3523.4375,0.03591638,-0.27902737
3527.34375,0.00242602,-0.32281783
3531.25,0.03103094,-0.35863733
3535.15625,0.00126192,-0.38043055
3539.0625,0.00815515,-0.38796884
3542.96875,0.01490784,-0.38734770
3546.875,0.00032521,-0.38962206
3550.78125,0.01477885,-0.40542388
3554.6875,0.00827269,-0.43646640
3558.59375,-0.02167723,-0.47171715
3562.5,-0.01002906,-0.49540183
3566.40625,-0.00232566,-0.49973866
3570.3125,-0.01373706,-0.48900932
3574.21875,-0.01036234,-0.47493491
3578.125,0.00107262,-0.47003382
3582.03125,-0.00532987,-0.48049513
3585.9375,-0.02065033,-0.50253689
3589.84375,-0.00785578,-0.52672732
3593.75,-0.01752761,-0.54428685
3597.65625,-0.02486937,-0.54907799
3601.5625,-0.02381716,-0.53935796
3605.46875,-0.00661697,-0.52106798
3609.375,-0.00999138,-0.50596672
3613.28125,-0.00890779,-0.50331050
3617.1875,-0.02168630,-0.51328456
3621.09375,-0.00863095,-0.52738672
3625.0,-0.01677001,-0.53289658
3628.90625,-0.01261284,-0.51782089
3632.8125,0.00021439,-0.47583210
3636.71875,-0.00972926,-0.41143280
3640.625,0.02064369,-0.34248486
3644.53125,0.04928375,-0.29235426
3648.4375,0.03280344,-0.27145869
3652.34375,0.02350774,-0.26654065
3656.25,0.04209503,-0.25212020
3660.15625,0.03624139,-0.21206863
3664.0625,0.05970671,-0.15033032
3667.96875,0.07892196,-0.08388443
3671.875,0.08724989,-0.02642178
3675.78125,0.07341214,0.01989309
3679.6875,0.09289137,0.05545518
3683.59375,0.10433764,0.07164206
3687.5,0.11025540,0.05565650
3691.40625,0.07719183,0.00538084
3695.3125,0.06957398,-0.06615840
3699.21875,0.07327137,-0.13941808
3703.125,0.02896913,-0.19888297
3707.03125,0.04855458,-0.24084648
3710.9375,0.04233341,-0.27458769
3714.84375,0.03101475,-0.31162032
3718.75,0.00910293,-0.35272753
3722.65625,0.01763783,-0.38899565
3726.5625,0.00477681,-0.41417536
3730.46875,0.01778071,-0.43169886
3734.375,-0.00668586,-0.44970146
3738.28125,-0.00244762,-0.47281253
3742.1875,-0.00441559,-0.49922809
3746.09375,0.00332448,-0.52202672
3750.0,-0.03534797,-0.53345674
3753.90625,-0.00976738,-0.53251153
3757.8125,0.00287099,-0.52701169
3761.71875,-0.01092152,-0.52402312
3765.625,-0.02509033,-0.52247077
3769.53125,-0.00296571,-0.51962692
3773.4375,-0.00304514,-0.51883167
3777.34375,-0.01098019,-0.52638179
3781.25,-0.02358811,-0.54706591
3785.15625,-0.02333241,-0.58734781
3789.0625,-0.02783483,-0.65690082
3792.96875,-0.05008355,-0.75786823
3796.875,-0.08116028,-0.86720890
3800.78125,-0.07911219,-0.92497820
3804.6875,-0.05828949,-0.83639067
3808.59375,-0.00660927,-0.49355716
3812.5,0.11582139,0.17999101
3816.40625,0.29668707,1.17589128
3820.3125,0.52874625,2.37005711
3824.21875,0.77216280,3.54092193
3828.125,0.93809688,4.43627024
3832.03125,1.00587010,4.85670090
3835.9375,0.96874905,4.71436071
3839.84375,0.86783946,4.04851055
3843.75,0.66267109,3.00568438
3847.65625,0.41232935,1.79446983
3851.5625,0.20787761,0.62340075
3855.46875,0.01400994,-0.35589969
3859.375,-0.10353513,-1.07396281
3863.28125,-0.19567908,-1.53080261
3867.1875,-0.22878359,-1.76229727
3871.09375,-0.26253307,-1.81126893
3875.0,-0.22962157,-1.71863246
3878.90625,-0.19248109,-1.52833521
3882.8125,-0.16662690,-1.29015577
3886.71875,-0.08597600,-1.05351770
3890.625,-0.07966546,-0.85561073
3894.53125,-0.02924982,-0.71162671
3898.4375,-0.03493304,-0.61531985
3902.34375,-0.01764362,-0.55112201
3906.25,0.00645815,-0.50854665
3910.15625,-0.00008230,-0.48680460
3914.0625,0.00086426,-0.48753795
3917.96875,0.00320450,-0.50507885
3921.875,-0.01524324,-0.52461183
3925.78125,-0.00242935,-0.53094774
3929.6875,-0.00804221,-0.51952654
3933.59375,0.00716220,-0.49749148
3937.5,-0.00016241,-0.47465190
3941.40625,0.00766018,-0.45633313
3945.3125,0.00937045,-0.44454286
3949.21875,0.01229162,-0.44069701
3953.125,0.01509861,-0.44273877
3957.03125,0.01086919,-0.44089314
3960.9375,0.00966398,-0.42152447
3964.84375,0.01842323,-0.37884182
3968.75,0.04384240,-0.32202241
3972.65625,0.04060065,-0.26922262
3976.5625,0.04884925,-0.23491259
3980.46875,0.06465414,-0.22093143
3984.375,0.04084324,-0.21512417
3988.28125,0.06864323,-0.19830832
3992.1875,0.05777980,-0.15687318
3996.09375,0.07544947,-0.09248897
4000.0,0.09466070,-0.02049152
4003.90625,0.11818999,0.04329168
4007.8125,0.09993923,0.09481547
4011.71875,0.11918107,0.13998725
4015.625,0.14560656,0.18499148
4019.53125,0.12560730,0.23352738
4023.4375,0.15983176,0.28918040
4027.34375,0.16393271,0.35406664
4031.25,0.16922711,0.42556107
4035.15625,0.19364865,0.49673682
4039.0625,0.21088541,0.56147355
4042.96875,0.20429839,0.61973029
4046.875,0.23080292,0.67684841
4050.78125,0.23868755,0.73775780
4054.6875,0.23129967,0.80135846
4058.59375,0.27353868,0.85867077
4062.5,0.27565554,0.89884830
4066.40625,0.25881171,0.91934252
4070.3125,0.26742724,0.92700768
4074.21875,0.28775719,0.93036163
4078.125,0.27525020,0.93636209
4082.03125,0.26041490,0.95098317
4085.9375,0.29496452,0.97468966
4089.84375,0.28096375,0.99854571
4093.75,0.30084187,1.00964129
4097.65625,0.27801037,0.99957001
4101.5625,0.27050450,0.96643555
4105.46875,0.29600963,0.91324401
4109.375,0.25166571,0.84865892
4113.28125,0.23354003,0.78409237
4117.1875,0.23808971,0.72341323
4121.09375,0.23862034,0.65936452
4125.0,0.20007195,0.58396918
4128.90625,0.19176444,0.49834070
4132.8125,0.19635673,0.41256359
4136.71875,0.14070670,0.33997679
4140.625,0.15402633,0.28751269
4144.53125,0.16481677,0.24840723
4148.4375,0.13654254,0.20840329
4152.34375,0.11265811,0.15812929
4156.25,0.14424314,0.09698417
4160.15625,0.09361345,0.03091253
4164.0625,0.09416811,-0.03084227
4167.96875,0.08643834,-0.08161467
4171.875,0.08296160,-0.12138688
4175.78125,0.06919661,-0.15483686
4179.6875,0.06495258,-0.18813877
4183.59375,0.05953653,-0.22728001
4187.5,0.05135094,-0.27507240
4191.40625,0.04766194,-0.32788008
4195.3125,0.01273268,-0.37713456
4199.21875,0.04186821,-0.41476879
4203.125,0.01554487,-0.43640700
4207.03125,0.00271447,-0.44281355
4210.9375,0.04206293,-0.44196486
4214.84375,0.00725249,-0.44538254
4218.75,0.02241091,-0.45817998
4222.65625,0.00890055,-0.47516373
4226.5625,0.00825777,-0.48762587
4230.46875,0.02070654,-0.49110174
4234.375,0.00107062,-0.48643577
4238.28125,0.01708195,-0.47704199
4242.1875,0.01632605,-0.46669528
4246.09375,0.02504303,-0.45727029
4250.0,0.00649157,-0.44778985
4253.90625,0.02267123,-0.43774578
4257.8125,0.03046708,-0.42960250
4261.71875,0.02868374,-0.42447144
4265.625,0.01662671,-0.41849101
4269.53125,0.01507826,-0.40958703
4273.4375,0.04415392,-0.40515497
4277.34375,0.03724752,-0.41486591
4281.25,0.00206293,-0.43671644
4285.15625,0.02353923,-0.45738009
4289.0625,0.02137897,-0.46495500
4292.96875,0.01735788,-0.45615453
4296.875,0.02143908,-0.43431309
4300.78125,0.02946739,-0.40524775
4304.6875,0.03989223,-0.37325495
4308.59375,0.03737907,-0.33875719
4312.5,0.04601827,-0.30009958
4316.40625,0.06681895,-0.25598565
4320.3125,0.06288937,-0.20455873
4324.21875,0.07506867,-0.14413254
4328.125,0.08994878,-0.07927824
4332.03125,0.10681016,-0.02346674
4335.9375,0.11017025,0.00926891
4339.84375,0.10678782,0.01557419
4343.75,0.10970296,0.00438905
4347.65625,0.09526809,-0.01155865
4351.5625,0.11380334,-0.02450911
4355.46875,0.09578720,-0.03375869
4359.375,0.09162268,-0.04364583
4363.28125,0.10544929,-0.06100371
4367.1875,0.08865219,-0.09032471
4371.09375,0.08672626,-0.12882082
4375.0,0.06424113,-0.16889964
4378.90625,0.07687771,-0.20650436
4382.8125,0.05530005,-0.24465880
4386.71875,0.05967510,-0.28843912
4390.625,0.04630268,-0.33784953
4394.53125,0.03406488,-0.38569379
4398.4375,0.02127922,-0.42269275
4402.34375,0.02336379,-0.44558996
4406.25,0.02980607,-0.45924589
4410.15625,0.02591402,-0.46987605
4414.0625,0.00151400,-0.47895262
4417.96875,0.02699859,-0.48560429
4421.875,0.01134143,-0.49113813
4425.78125,0.02319466,-0.49787036
4429.6875,0.00474515,-0.50595123
4433.59375,0.02059795,-0.51365989
4437.5,0.00324283,-0.51973146
4441.40625,0.01404167,-0.52514273
4445.3125,0.00793918,-0.53413010
4449.21875,0.00539342,-0.55413854
4453.125,-0.00417228,-0.59405148
4457.03125,-0.01083201,-0.66023111
4460.9375,-0.04702737,-0.74978644
4464.84375,-0.03341708,-0.83919531
4468.75,-0.03837515,-0.86836028
4472.65625,-0.03026035,-0.73470056
4476.5625,0.03436841,-0.32189941
4480.46875,0.18170260,0.43731818
4484.375,0.39729050,1.50384665
4488.28125,0.62253875,2.72020841
4492.1875,0.83011568,3.84889364
4496.09375,1.00241518,4.64118242
4500.0,1.03539681,4.91253424
4503.90625,0.97964400,4.59885311
4507.8125,0.83101642,3.77280641
4511.71875,0.60218632,2.61700535
4515.625,0.36127877,1.36441696
4519.53125,0.12789877,0.22462328
4523.4375,0.00090586,-0.67233479
4527.34375,-0.11828768,-1.28585207
4531.25,-0.21181943,-1.63577378
4535.15625,-0.21337520,-1.76947784
4539.0625,-0.21945289,-1.74316251
4542.96875,-0.19224170,-1.61107075
4546.875,-0.14716303,-1.41813672
4550.78125,-0.12556313,-1.19873488
4554.6875,-0.06859852,-0.98077518
4558.59375,-0.03617283,-0.78890383
4562.5,-0.01087753,-0.64212424
4566.40625,0.01604360,-0.54853410
4570.3125,0.01448128,-0.50363266
4574.21875,0.00570545,-0.49505734
4578.125,0.03729345,-0.50863123
4582.03125,0.00431020,-0.52859652
4585.9375,0.01330359,-0.53659928
4589.84375,0.00833625,-0.51943439
4593.75,0.01974362,-0.48092708
4597.65625,0.03515391,-0.44243252
4601.5625,0.03911595,-0.42665541
4605.46875,0.03070630,-0.43810689
4609.375,0.01969489,-0.45962706
4613.28125,0.02252434,-0.46880591
4617.1875,0.02442200,-0.45680663
4621.09375,0.04595608,-0.43074220
4625.0,0.02691161,-0.40093595
4628.90625,0.05187640,-0.37023011
4632.8125,0.04530359,-0.33569160
4636.71875,0.05246769,-0.29722661
4640.625,0.07380015,-0.26235247
4644.53125,0.05578864,-0.24184282
4648.4375,0.08786671,-0.23934166
4652.34375,0.05806331,-0.24364683
4656.25,0.07275753,-0.23223571
4660.15625,0.07202003,-0.18668120
4664.0625,0.09092442,-0.10828749
4667.96875,0.11640442,-0.01909823
4671.875,0.12835360,0.05433903
4675.78125,0.13379554,0.10115356
4679.6875,0.14439750,0.13345386
4683.59375,0.13858457,0.17503087
4687.5,0.14852487,0.23990464
4691.40625,0.18008998,0.31872362
4695.3125,0.20471999,0.38842207
4699.21875,0.19626856,0.43772379
4703.125,0.19737007,0.47970781
4707.03125,0.20587823,0.53587151
4710.9375,0.22738820,0.61070079
4714.84375,0.26524448,0.68695188
4718.75,0.25384971,0.74574172
4722.65625,0.25312597,0.78512013
4726.5625,0.26656681,0.81601149
4730.46875,0.27532187,0.84641057
4734.375,0.29039744,0.87625450
4738.28125,0.28412926,0.90484858
4742.1875,0.28489244,0.93511206
4746.09375,0.29546878,0.96706104
4750.0,0.30410165,0.99095488
4753.90625,0.30642343,0.99206966
4757.8125,0.30236593,0.96390927
4761.71875,0.28684124,0.91582572
4765.625,0.26724482,0.86597896
4769.53125,0.27201176,0.82607168
4773.4375,0.27785283,0.79412323
4777.34375,0.25023493,0.76146334
4781.25,0.26012513,0.72325230
4785.15625,0.24005513,0.68169677
4789.0625,0.22950871,0.64141029
4792.96875,0.23874407,0.60227823
4796.875,0.21634364,0.55719423
4800.78125,0.21830097,0.49744454
4804.6875,0.17858860,0.41964355
4808.59375,0.19141908,0.32906592
4812.5,0.17685619,0.24048740
4816.40625,0.11831829,0.17259857
4820.3125,0.14182034,0.13159442
4824.21875,0.15040147,0.10066104
4828.125,0.13071132,0.05473991
4832.03125,0.10608095,-0.01499161
4835.9375,0.09915239,-0.09637295
4839.84375,0.07747725,-0.17102446
4843.75,0.08737626,-0.22740427
4847.65625,0.05579760,-0.26304850
4851.5625,0.05817398,-0.28254303
4855.46875,0.07744700,-0.29440627
4859.375,0.05802973,-0.30431587
4863.28125,0.04875143,-0.31139180
4867.1875,0.04722565,-0.31530786
4871.09375,0.07729895,-0.32283068
4875.0,0.05319866,-0.34081537
4878.90625,0.02829269,-0.36749205
4882.8125,0.05483174,-0.39689258
4886.71875,0.03136458,-0.42655751
4890.625,0.03923853,-0.45552918
4894.53125,0.02155141,-0.47979057
4898.4375,0.01582961,-0.49505958
4902.34375,0.03543250,-0.50201035
4906.25,0.01551280,-0.50559741
4910.15625,0.01447223,-0.51090479
4914.0625,0.03388730,-0.52075052
4917.96875,0.00857227,-0.53433752
4921.875,0.00501529,-0.54799372
4925.78125,0.02823453,-0.55899376
4929.6875,-0.00205804,-0.56693321
4933.59375,0.01233631,-0.57121813
4937.5,0.01701893,-0.56945699
4941.40625,0.00550484,-0.55850875
4945.3125,0.00873142,-0.53810143
4949.21875,0.03095019,-0.51365334
4953.125,0.02771660,-0.49217820
4957.03125,0.01465334,-0.47559658
4960.9375,0.03483127,-0.46066126
4964.84375,0.05000292,-0.44180855
4968.75,0.02062229,-0.41227207
4972.65625,0.04202867,-0.36973399
4976.5625,0.07138288,-0.32281038
4980.46875,0.06242331,-0.28392965
4984.375,0.07320862,-0.25407565
4988.28125,0.07010631,-0.22089994
4992.1875,0.07235666,-0.17420897
4996.09375,0.10500970,-0.11997142
5000.0,0.10792758,-0.07570492
5003.90625,0.10717443,-0.05278287
5007.8125,0.10834013,-0.04659287
5011.71875,0.09708780,-0.04388867
5015.625,0.12178049,-0.03578443
5019.53125,0.11103743,-0.02219106
5023.4375,0.11480431,-0.00793899
5027.34375,0.11931761,0.00062016
5031.25,0.11417130,-0.00425595
5035.15625,0.10466979,-0.03129592
5039.0625,0.11397110,-0.08587027
5042.96875,0.09143294,-0.16216369
5046.875,0.05918223,-0.24146424
5050.78125,0.04953108,-0.30419719
5054.6875,0.07932369,-0.34297308
5058.59375,0.03646020,-0.36128613
5062.5,0.03800115,-0.36725232
5066.40625,0.05464730,-0.37443656
5070.3125,0.05046479,-0.39910328
5074.21875,0.02627524,-0.44701150
5078.125,0.02762474,-0.50523365
5082.03125,0.00349060,-0.55086732
5085.9375,0.01106988,-0.56813186
5089.84375,0.01679675,-0.55766952
5093.75,0.02057656,-0.53118336
5097.65625,0.01640401,-0.50070089
5101.5625,0.02184867,-0.47521368
5105.46875,0.04605166,-0.46243790
5109.375,0.02473978,-0.46650177
5113.28125,0.02136301,-0.48573074
5117.1875,0.01393098,-0.51958293
5121.09375,0.00390951,-0.57728213
5125.0,0.00702769,-0.67117888
5128.90625,-0.03803077,-0.79312861
5132.8125,-0.04339635,-0.89271814
5136.71875,-0.05315010,-0.87694377
5140.625,0.00085463,-0.63494730
5144.53125,0.09724738,-0.07890548
5148.4375,0.26610532,0.81181049
5152.34375,0.48047155,1.95859373
5156.25,0.70501453,3.17993736
5160.15625,0.92034453,4.22718763
5164.0625,1.04741883,4.85663271
5167.96875,1.04936421,4.91304255
5171.875,0.95215309,4.38493252
5175.78125,0.73731261,3.40263081
5179.6875,0.53289717,2.18326902
5183.59375,0.29872561,0.95531809
5187.5,0.08173641,-0.10362054
5191.40625,-0.05174596,-0.89861363
5195.3125,-0.13410968,-1.41400981
5199.21875,-0.21542838,-1.68435085
5203.125,-0.20359811,-1.76320875
5207.03125,-0.20379178,-1.70480227
5210.9375,-0.18318777,-1.55637681
5214.84375,-0.14270565,-1.35784698
5218.75,-0.08943702,-1.14500368
5222.65625,-0.07906544,-0.94916105
5226.5625,-0.00748297,-0.79073584
5230.46875,-0.02026931,-0.67273831
5234.375,-0.00568897,-0.58443248
5238.28125,0.02654129,-0.51593459
5242.1875,0.02608634,-0.46813878
5246.09375,0.03508598,-0.44764748
5250.0,0.03322295,-0.45574388
5253.90625,0.02622192,-0.48304623
5257.8125,0.00730747,-0.51292819
5261.71875,0.01792722,-0.53060615
5265.625,0.02710728,-0.52920258
5269.53125,0.02584428,-0.50764823
5273.4375,0.00297996,-0.46864027
5277.34375,0.04198251,-0.42312115
5281.25,0.05236805,-0.39017615
5285.15625,0.05165261,-0.38371801
5289.0625,0.02473971,-0.39972615
5292.96875,0.04547510,-0.41924304
5296.875,0.01847122,-0.42181003
5300.78125,0.06850763,-0.39599606
5304.6875,0.02971394,-0.34321517
5308.59375,0.06324168,-0.27794728
5312.5,0.07817475,-0.22263205
5316.40625,0.08623455,-0.19331524
5320.3125,0.08200282,-0.18535903
5324.21875,0.06853235,-0.17588741
5328.125,0.09281724,-0.14229201
5332.03125,0.09981634,-0.07809138
5335.9375,0.11705095,0.00635328
5339.84375,0.13463160,0.09375763
5343.75,0.14137580,0.17037682
5347.65625,0.16998599,0.23173402
5351.5625,0.16392198,0.28226253
5355.46875,0.16306588,0.32915136
5359.375,0.19921327,0.37553236
5363.28125,0.18786940,0.42043331
5367.1875,0.20696403,0.46411613
5371.09375,0.21750812,0.51078248
5375.0,0.19926220,0.56543618
5378.90625,0.24109265,0.62788337
5382.8125,0.25164360,0.69093114
5386.71875,0.25532731,0.74700516
5390.625,0.26496512,0.79578692
5394.53125,0.25908524,0.84251344
5398.4375,0.28223416,0.88863671
5402.34375,0.30483687,0.92750335
5406.25,0.28895986,0.95181644
5410.15625,0.28777045,0.96229565
5414.0625,0.28831029,0.96570498
5417.96875,0.31996873,0.96816885
5421.875,0.27825135,0.97313750
5425.78125,0.30201200,0.97978854
5429.6875,0.28921404,0.97905713
5433.59375,0.30563691,0.95694053
5437.5,0.29181176,0.90849990
5441.40625,0.26738179,0.84701431
5445.3125,0.24129120,0.79233152
5449.21875,0.26739320,0.74880618
5453.125,0.25741246,0.70118731
5457.03125,0.21569963,0.63360918
5460.9375,0.22644542,0.54663903
5464.84375,0.19607714,0.45606729
5468.75,0.18433084,0.38033271
5472.65625,0.16219786,0.32794276
5476.5625,0.18059821,0.29339328
5480.46875,0.16069433,0.26437634
5484.375,0.15165983,0.23075049
5488.28125,0.15178025,0.18591189
5492.1875,0.13141789,0.12531118
5496.09375,0.11993853,0.04868540
5500.0,0.11198325,-0.03743147
5503.90625,0.08086441,-0.12143943
5507.8125,0.08448006,-0.19081117
5511.71875,0.06229623,-0.23560594
5515.625,0.05847909,-0.25287578
5519.53125,0.06130790,-0.25250676
5523.4375,0.06889661,-0.25567359
5527.34375,0.07518990,-0.27925470
5531.25,0.03237415,-0.32015494
5535.15625,0.04291938,-0.36009082
5539.0625,0.03593582,-0.38599068
5542.96875,0.03952958,-0.40095052
5546.875,0.03703928,-0.41565755
5550.78125,0.03164115,-0.43414003
5554.6875,0.01328466,-0.45022324
5558.59375,0.02754636,-0.45611602
5562.5,0.03172380,-0.45167369
5566.40625,0.01331430,-0.44573590
5570.3125,0.04189528,-0.45035732
5574.21875,0.01421631,-0.47161192
5578.125,0.00847814,-0.50348496
5582.03125,0.01884061,-0.53115106
5585.9375,0.01152646,-0.53993106
5589.84375,-0.00233247,-0.52354425
5593.75,0.01333372,-0.49018228
5597.65625,0.03249176,-0.46028772
5601.5625,0.03720581,-0.45104110
5605.46875,0.00636763,-0.46107325
5609.375,0.02424161,-0.47349101
5613.28125,0.01544862,-0.47317371
5617.1875,0.01810412,-0.45992905
5621.09375,0.03121112,-0.44750723
5625.0,0.02812366,-0.45011553
5628.90625,0.02237405,-0.46671703
5632.8125,0.01286398,-0.47825319
5636.71875,0.01499051,-0.46261027
5640.625,0.03324417,-0.41345105
5644.53125,0.04451666,-0.34532556
5648.4375,0.05431921,-0.28233880
5652.34375,0.06618045,-0.24081889
5656.25,0.07766838,-0.21756220
5660.15625,0.04642293,-0.19272849
5664.0625,0.09522093,-0.14803563
5667.96875,0.08019392,-0.08437869
5671.875,0.11326203,-0.02127271
5675.78125,0.10933479,0.01965168
5679.6875,0.11615568,0.02996911
5683.59375,0.10304160,0.01594482
5687.5,0.11144198,-0.01153286
5691.40625,0.08183388,-0.04610627
5695.3125,0.11150889,-0.08502997
5699.21875,0.08685166,-0.12204252
5703.125,0.05102171,-0.14863965
5707.03125,0.08542968,-0.16720307
5710.9375,0.08325104,-0.19527952
5714.84375,0.04333705,-0.24902469
5718.75,0.05976413,-0.32547513
5722.65625,0.02846739,-0.40276510
5726.5625,0.00355505,-0.45563680
5730.46875,0.02082993,-0.47398382
5734.375,0.02445912,-0.46906072
5738.28125,0.01852810,-0.46108854
5742.1875,0.01538265,-0.46295354
5746.09375,0.01560450,-0.47600305
5750.0,0.01310889,-0.49538934
5753.90625,0.00680796,-0.51518202
5757.8125,0.00139172,-0.53097767
5761.71875,0.00485365,-0.54161286
5765.625,0.00340865,-0.54868168
5769.53125,0.00364658,-0.55301720
5773.4375,-0.00638408,-0.55254447
5777.34375,-0.00053902,-0.54620302
5781.25,0.00479175,-0.54065371
5785.15625,0.00251297,-0.55135238
5789.0625,-0.01182569,-0.59519994
5792.96875,-0.02900099,-0.67886955
5796.875,-0.03915747,-0.78540272
5800.78125,-0.04779314,-0.85990030
5804.6875,-0.03730737,-0.80394149
5808.59375,-0.00967743,-0.49743736
5812.5,0.12287480,0.14714339
5816.40625,0.31552732,1.12553263
5820.3125,0.53531289,2.31620908
5824.21875,0.76477951,3.50321865
5828.125,0.94375628,4.43467712
5832.03125,1.02291131,4.89607620
5835.9375,1.02549779,4.77652884
5839.84375,0.86261505,4.10446358
5843.75,0.68336272,3.03558230
5847.65625,0.43555626,1.79648459
5851.5625,0.19618370,0.60856968
5855.46875,0.02746267,-0.37519270
5859.375,-0.08515809,-1.09249651
5863.28125,-0.19030927,-1.54887760
5867.1875,-0.23979591,-1.77925646
5871.09375,-0.23703600,-1.82478344
5875.0,-0.22637326,-1.72790098
5878.90625,-0.19814239,-1.53492069
5882.8125,-0.13695635,-1.29786921
5886.71875,-0.09190582,-1.06756330
5890.625,-0.07295848,-0.87855858
5894.53125,-0.03304948,-0.74004698
5898.4375,-0.02525093,-0.64180797
5902.34375,-0.00996865,-0.56933719
5906.25,-0.00039862,-0.51659787
5910.15625,0.01981751,-0.48689103
5914.0625,0.01003354,-0.48203900
5917.96875,-0.00683626,-0.49371958
5921.875,0.01223703,-0.50768530
5925.78125,0.00424378,-0.51342183
5929.6875,0.00224770,-0.50831783
5933.59375,-0.00111904,-0.49713653
5937.5,0.00997113,-0.48940369
5941.40625,0.01114366,-0.49238729
5945.3125,0.00890366,-0.50230235
5949.21875,-0.00077841,-0.50350946
5953.125,-0.00202791,-0.48000342
5957.03125,0.02293129,-0.42975882
5960.9375,0.02690330,-0.36758530
5964.84375,0.05480086,-0.31342295
5968.75,0.03080269,-0.27812704
5972.65625,0.05008533,-0.25972497
5976.5625,0.05762053,-0.24910744
5980.46875,0.04858872,-0.23591670
5984.375,0.05689967,-0.21253465
5988.28125,0.05810194,-0.17752336
5992.1875,0.09247345,-0.13438714
5996.09375,0.06160570,-0.08615616
6000.0,0.08837407,-0.03447834
6003.90625,0.11518189,0.01777747
6007.8125,0.10754218,0.06955917
6011.71875,0.11273111,0.12554434
6015.625,0.13354465,0.19106127
6019.53125,0.14858186,0.26488721
6023.4375,0.16082343,0.33998370
6027.34375,0.16929424,0.40825915
6031.25,0.18684584,0.46414021
6035.15625,0.20102969,0.50923473
6039.0625,0.18801087,0.55500358
6042.96875,0.20799913,0.61462909
6046.875,0.23373675,0.68929237
6050.78125,0.23928325,0.76557910
6054.6875,0.24558474,0.82618070
6058.59375,0.25929111,0.86116123
6062.5,0.27008188,0.87339425
6066.40625,0.25466940,0.87801236
6070.3125,0.25533456,0.89253473
6074.21875,0.26001090,0.92151564
6078.125,0.29860324,0.95246506
6082.03125,0.26469839,0.96951526
6085.9375,0.27417967,0.96730453
6089.84375,0.27300632,0.95067596
6093.75,0.28446108,0.92859286
6097.65625,0.24674901,0.91044557
6101.5625,0.26138705,0.89975536
6105.46875,0.26949176,0.88821137
6109.375,0.26026842,0.86148441
6113.28125,0.24279340,0.81228560
6117.1875,0.22488648,0.74533880
6121.09375,0.23852074,0.67266840
6125.0,0.18618640,0.60667348
6128.90625,0.20639127,0.55275381
6132.8125,0.18877308,0.50508922
6136.71875,0.17764287,0.45195636
6140.625,0.16156413,0.38533899
6144.53125,0.14872977,0.30473861
6148.4375,0.14551055,0.21652311
6152.34375,0.10885842,0.13299714
6156.25,0.09645851,0.06715225
6160.15625,0.10253221,0.02303723
6164.0625,0.09087968,-0.00748892
6167.96875,0.08244327,-0.03676956
6171.875,0.09038055,-0.07102215
6175.78125,0.05577411,-0.10814990
6179.6875,0.06379920,-0.14557612
6183.59375,0.05208367,-0.18785077
6187.5,0.06917842,-0.24101751
6191.40625,0.01787038,-0.29958272
6195.3125,0.02264747,-0.34668744
6199.21875,0.01877997,-0.36930829
6203.125,0.03569831,-0.36796364
6207.03125,0.00609511,-0.35322049
6210.9375,0.03236966,-0.34084794
6214.84375,0.02861172,-0.34819475
6218.75,0.01716424,-0.38436410
6222.65625,0.00971337,-0.44049975
6226.5625,-0.01621152,-0.49420160
6230.46875,0.00292194,-0.52559566
6234.375,-0.01791454,-0.52884585
6238.28125,-0.00636618,-0.51165956
6242.1875,-0.00065774,-0.48915949
6246.09375,-0.00771710,-0.47809550
6250.0,0.00662846,-0.49010059
6253.90625,-0.00697167,-0.52311790
6257.8125,-0.02452392,-0.55862623
6261.71875,-0.01906210,-0.57305580
6265.625,-0.02190277,-0.55650163
6269.53125,-0.01054262,-0.52081299
6273.4375,0.00827430,-0.48866656
6277.34375,-0.00034965,-0.47340649
6281.25,-0.00176575,-0.46905079
6285.15625,-0.02029241,-0.46061578
6289.0625,0.02504077,-0.44215173
6292.96875,-0.00161337,-0.42104656
6296.875,0.03061784,-0.40573490
6300.78125,-0.00499843,-0.39460710
6304.6875,0.00340822,-0.37988305
6308.59375,0.04731071,-0.35820737
6312.5,0.01018494,-0.33140984
6316.40625,0.03606576,-0.29872257
6320.3125,0.03573091,-0.25443405
6324.21875,0.03926545,-0.19458564
6328.125,0.08428305,-0.12479144
6332.03125,0.05523233,-0.06133515
6335.9375,0.08607344,-0.02364133
6339.84375,0.09515979,-0.02125607
6343.75,0.07450344,-0.04366973
6347.65625,0.06641039,-0.06566764
6351.5625,0.06794732,-0.06820450
6355.46875,0.07744610,-0.05400207
6359.375,0.08518323,-0.04176573
6363.28125,0.08006163,-0.04759505
6367.1875,0.06577756,-0.07345144
6371.09375,0.05777775,-0.11152332
6375.0,0.06123045,-0.15566377
6378.90625,0.04925463,-0.20568456
6382.8125,0.03549056,-0.26202416
6386.71875,0.01518753,-0.32047170
6390.625,0.02451994,-0.37302029
6394.53125,0.01102385,-0.41118962
6398.4375,-0.00538438,-0.42964801
6402.34375,-0.00756744,-0.43225670
6406.25,0.01078575,-0.43478414
6410.15625,0.01566206,-0.45421803
6414.0625,-0.01471614,-0.49157691
6417.96875,-0.03466172,-0.52901345
6421.875,-0.00365138,-0.54517686
6425.78125,-0.02222995,-0.53103012
6429.6875,-0.00308940,-0.49475813
6433.59375,-0.01675333,-0.45836914
6437.5,0.01418138,-0.44686276
6441.40625,-0.01172866,-0.47194248
6445.3125,-0.00340351,-0.52305794
6449.21875,-0.03170093,-0.57724059
6453.125,-0.05733164,-0.62216848
6457.03125,-0.03367735,-0.67085600
6460.9375,-0.04949282,-0.74654835
6464.84375,-0.06197268,-0.84169340
6468.75,-0.08342349,-0.88568711
6472.65625,-0.06749284,-0.75586832
6476.5625,0.00449548,-0.33284917
6480.46875,0.16869745,0.43393019
6484.375,0.36686099,1.49038446
6488.28125,0.57676452,2.68359852
6492.1875,0.79944849,3.79497194
6496.09375,0.95479947,4.58983135
6500.0,0.99686784,4.88034725
6503.90625,0.96092772,4.58728218
6507.8125,0.80684412,3.77428079
6511.71875,0.57185698,2.63139081
6515.625,0.32230991,1.40396166
6519.53125,0.12652586,0.29923335
6523.4375,-0.02008184,-0.57326049
6527.34375,-0.12608613,-1.19616497
6531.25,-0.21731324,-1.59577501
6535.15625,-0.25984871,-1.79881597
6539.0625,-0.27307290,-1.82325745
6542.96875,-0.24426642,-1.69612408
6546.875,-0.18986036,-1.47061741
6550.78125,-0.14442341,-1.21942270
6554.6875,-0.10468830,-1.00538146
6558.59375,-0.07829894,-0.85405177
6562.5,-0.06945480,-0.75241464
6566.40625,-0.05358088,-0.67367578
6570.3125,-0.02288513,-0.60342169
6574.21875,-0.02883294,-0.54445976
6578.125,-0.00016300,-0.50387305
6582.03125,-0.03159326,-0.48224509
6585.9375,0.00726797,-0.47454828
6589.84375,-0.02006955,-0.47578561
6593.75,-0.00847328,-0.48334256
6597.65625,-0.00742868,-0.49473700
6601.5625,-0.01300386,-0.50353950
6605.46875,-0.03157915,-0.50094980
6609.375,-0.01148455,-0.48585212
6613.28125,0.01459321,-0.46897799
6617.1875,-0.01669274,-0.46059531
6621.09375,-0.02070513,-0.45833272
6625.0,0.00190481,-0.45215455
6628.90625,0.00315892,-0.43590587
6632.8125,-0.00334836,-0.41006285
6636.71875,0.00771001,-0.37756300
6640.625,0.01609244,-0.33940607
6644.53125,0.02261334,-0.29308301
6648.4375,0.03582505,-0.23598509
6652.34375,0.04927438,-0.17082860
6656.25,0.05299045,-0.10690616
6660.15625,0.06062704,-0.05677053
6664.0625,0.08548860,-0.02993382
6667.96875,0.08787163,-0.02342916
6671.875,0.04974329,-0.01757615
6675.78125,0.09083250,0.01233276
6679.6875,0.08723098,0.07709249
6683.59375,0.10923437,0.16683121
6687.5,0.13842288,0.26089281
6691.40625,0.13863719,0.34305599
6695.3125,0.14790004,0.40921909
6699.21875,0.18082388,0.46462134
6703.125,0.15881847,0.51738876
6707.03125,0.18731317,0.57282203
6710.9375,0.20619415,0.63047892
6714.84375,0.21052562,0.68772072
6718.75,0.20622373,0.74509799
6722.65625,0.22904666,0.80453610
6726.5625,0.24720387,0.86349308
6730.46875,0.24894316,0.91410553
6734.375,0.25445399,0.94753045
6738.28125,0.25907165,0.95946842
6742.1875,0.26042944,0.95419657
6746.09375,0.24596928,0.94241387
6750.0,0.25781319,0.93270022
6753.90625,0.26594055,0.92653900
6757.8125,0.22124520,0.92086291
6761.71875,0.26418665,0.91034293
6765.625,0.25431511,0.88929999
6769.53125,0.23117645,0.85768771
6773.4375,0.22799411,0.82281077
6777.34375,0.22621410,0.79109788
6781.25,0.22439314,0.76046675
6785.15625,0.20490278,0.72175783
6789.0625,0.21267442,0.66645747
6792.96875,0.19236407,0.59524554
6796.875,0.16629887,0.52009082
6800.78125,0.15814631,0.45467347
6804.6875,0.15445834,0.40180805
6808.59375,0.14838502,0.35264465
6812.5,0.13582979,0.29740244
6816.40625,0.11473906,0.23385490
6820.3125,0.10625631,0.16593091
6824.21875,0.09310871,0.09786683
6828.125,0.09268747,0.03172442
6832.03125,0.06092609,-0.03115865
6835.9375,0.07050093,-0.08880978
6839.84375,0.03214411,-0.13949427
6843.75,0.05151189,-0.18346098
6847.65625,0.04153006,-0.22177449
6851.5625,0.03143558,-0.25249723
6855.46875,-0.00054786,-0.27251130
6859.375,0.03804911,-0.28578177
6863.28125,0.02481235,-0.30362299
6867.1875,0.00966926,-0.33248511
6871.09375,0.01071792,-0.36573702
6875.0,-0.00972760,-0.39038190
6878.90625,0.00446911,-0.39957911
6882.8125,0.01422757,-0.39742592
6886.71875,-0.02107532,-0.39429110
6890.625,0.02326391,-0.40013206
6894.53125,-0.01610450,-0.41967455
6898.4375,-0.00247928,-0.45016977
6902.34375,-0.02363409,-0.48383811
6906.25,-0.01014276,-0.51250488
6910.15625,-0.03104155,-0.52988988
6914.0625,-0.02443074,-0.53304553
6917.96875,-0.01989422,-0.52455056
6921.875,-0.02552273,-0.51250982
6925.78125,-0.02093176,-0.50682926
6929.6875,-0.00658430,-0.51303983
6933.59375,-0.03375059,-0.52737981
6937.5,-0.03274975,-0.53961951
6941.40625,-0.01761746,-0.54228377
6945.3125,-0.02448268,-0.53503942
6949.21875,-0.02895808,-0.52133894
6953.125,-0.01410006,-0.50497961
6957.03125,-0.02067944,-0.48869812
6960.9375,-0.00741360,-0.47184569
6964.84375,-0.00864457,-0.44885841
6968.75,-0.00635509,-0.41291195
6972.65625,0.00051161,-0.36441395
6976.5625,0.01996905,-0.31591871
6980.46875,0.03087747,-0.28449249
6984.375,0.02154479,-0.27619007
6988.28125,0.02015530,-0.27892119
6992.1875,0.02379974,-0.27144322
6996.09375,0.02448706,-0.23921809
7000.0,0.04597140,-0.18323499
7003.90625,0.05756563,-0.11574034
7007.8125,0.07329674,-0.04881261
7011.71875,0.05550082,0.01059269
7015.625,0.09707796,0.05468630
7019.53125,0.09211947,0.07122864
7023.4375,0.09135570,0.05202615
7027.34375,0.06514811,0.00251607
7031.25,0.06730746,-0.06100729
7035.15625,0.04473438,-0.12214901
7039.0625,0.06558332,-0.17052454
7042.96875,0.02298630,-0.20165727
7046.875,0.02208005,-0.21956569
7050.78125,0.03655888,-0.24060120
7054.6875,0.04141112,-0.28388894
7058.59375,0.00348870,-0.35067534
7062.5,-0.00624743,-0.41896686
7066.40625,-0.03615917,-0.46447900
7070.3125,0.01065015,-0.48258916
7074.21875,-0.00909947,-0.48527265
7078.125,-0.03758505,-0.48405308
7082.03125,-0.00610019,-0.48455834
7085.9375,-0.01029946,-0.49022546
7089.84375,-0.02267526,-0.50012213
7093.75,-0.02561662,-0.50638723
7097.65625,-0.01048494,-0.50039357
7101.5625,-0.01666357,-0.48059455
7105.46875,-0.01387108,-0.45472896
7109.375,-0.00552548,-0.43770161
7113.28125,-0.00739160,-0.44637632
7117.1875,-0.01628900,-0.49227187
7121.09375,-0.02628274,-0.57577366
7125.0,-0.06233727,-0.68412614
7128.90625,-0.07870394,-0.79135293
7132.8125,-0.07119981,-0.85503471
7136.71875,-0.07131547,-0.80938405
7140.625,-0.03300083,-0.56725699
7144.53125,0.06692936,-0.04547856
7148.4375,0.20949361,0.79075205
7152.34375,0.43401852,1.88631701
7156.25,0.64638996,3.08162570
7160.15625,0.86288512,4.14016819
7164.0625,1.00082958,4.81634426
7167.96875,0.99884176,4.93859768
7171.875,0.93255675,4.46895838
7175.78125,0.73567212,3.51292133
7179.6875,0.50710231,2.28010535
7183.59375,0.25790468,1.01380694
7187.5,0.04705334,-0.08373882
7191.40625,-0.09315805,-0.90049851
7195.3125,-0.17711100,-1.41910386
7199.21875,-0.24196853,-1.68353987
7203.125,-0.24843827,-1.75660563
7207.03125,-0.24558733,-1.69359243
7210.9375,-0.22534844,-1.53831494
7214.84375,-0.16753088,-1.33105648
7218.75,-0.12083697,-1.11201930
7222.65625,-0.10825287,-0.91478950
7226.5625,-0.06332278,-0.75954354
7230.46875,-0.04603649,-0.65239537
7234.375,-0.03045472,-0.58742017
7238.28125,-0.02658789,-0.55095834
7242.1875,-0.03556671,-0.52991289
7246.09375,-0.00095285,-0.51743567
7250.0,-0.02880710,-0.50992310
7253.90625,-0.02560291,-0.50323093
7257.8125,-0.00626523,-0.49588206
7261.71875,-0.01090736,-0.49103397
7265.625,-0.02139483,-0.49078399
7269.53125,-0.01830834,-0.49153632
7273.4375,-0.01065774,-0.48664379
7277.34375,-0.01204717,-0.47124362
7281.25,0.00319309,-0.44466799
7285.15625,-0.01594111,-0.41148460
7289.0625,0.00536689,-0.38159126
7292.96875,0.02277126,-0.36513701
7296.875,0.01067657,-0.36239752
7300.78125,0.00194995,-0.36069605
7304.6875,0.00881042,-0.34556189
7308.59375,0.02344766,-0.31347552
7312.5,0.02145637,-0.27203509
7316.40625,0.05039343,-0.23097807
7320.3125,0.02074776,-0.19530602
7324.21875,0.07038391,-0.16388969
7328.125,0.03492799,-0.13051741
7332.03125,0.06786221,-0.08752465
7335.9375,0.06507606,-0.03259986
7339.84375,0.09818618,0.02814202
7343.75,0.08983376,0.08593543
7347.65625,0.09674746,0.13688447
7351.5625,0.11785486,0.18353654
7355.46875,0.12887478,0.23268959
7359.375,0.12263902,0.29224721
7363.28125,0.16343573,0.36628714
7367.1875,0.14134116,0.45115894
7371.09375,0.19606033,0.53691828
7375.0,0.18956141,0.61347717
7378.90625,0.21608509,0.67648548
7382.8125,0.20798007,0.72728777
7386.71875,0.21548240,0.76744640
7390.625,0.24177815,0.79649848
7394.53125,0.23492695,0.81739295
7398.4375,0.23025502,0.84030652
7402.34375,0.25348294,0.87602258
7406.25,0.24243397,0.92556250
7410.15625,0.26189959,0.97701150
7414.0625,0.28031686,1.01202822
7417.96875,0.27563143,1.01798499
7421.875,0.26300266,0.99642324
7425.78125,0.25850171,0.95999897
7429.6875,0.25284618,0.92200774
7433.59375,0.24386008,0.88836473
7437.5,0.24941705,0.85642380
7441.40625,0.23578286,0.81996357
7445.3125,0.22460175,0.77650130
7449.21875,0.22302999,0.72993863
7453.125,0.18540706,0.68422371
7457.03125,0.22230874,0.63500494
7460.9375,0.19509876,0.57261139
7464.84375,0.15915886,0.49464267
7468.75,0.16538763,0.41084176
7472.65625,0.13848794,0.33476976
7476.5625,0.13362595,0.27279189
7480.46875,0.11756091,0.21901448
7484.375,0.12985829,0.16041920
7488.28125,0.08250164,0.09014658
7492.1875,0.09051243,0.01564387
7496.09375,0.06467773,-0.04779691
7500.0,0.07446229,-0.08994346
7503.90625,0.06171658,-0.11204045
7507.8125,0.04007795,-0.12504447
7511.71875,0.06628932,-0.14370926
7515.625,0.06045774,-0.17717049
7519.53125,0.02823616,-0.22137868
7523.4375,0.03519305,-0.26347974
7527.34375,0.02166194,-0.29428676
7531.25,0.02145540,-0.31409141
7535.15625,0.03254499,-0.32843143
7539.0625,0.00706643,-0.34210795
7542.96875,0.02839649,-0.35697335
7546.875,0.00046511,-0.37315854
7550.78125,0.00022887,-0.39229190
7554.6875,0.02180933,-0.41875231
7558.59375,0.00054789,-0.45444334
7562.5,-0.02874315,-0.49361312
7566.40625,-0.00301291,-0.52689648
7570.3125,-0.02221932,-0.54806888
7574.21875,-0.02771825,-0.55534697
7578.125,-0.01983651,-0.55134743
7582.03125,-0.00521829,-0.54245520
7585.9375,-0.02296332,-0.53406107
7589.84375,-0.02676616,-0.52806073
7593.75,-0.01473751,-0.52732319
7597.65625,-0.00543173,-0.53711712
7601.5625,-0.01861303,-0.55688804
7605.46875,-0.02573767,-0.57364327
7609.375,-0.03572633,-0.56927556
7613.28125,-0.01828740,-0.53671169
7617.1875,0.00219991,-0.48800647
7621.09375,0.00560129,-0.44504681
7625.0,0.00515373,-0.42180526
7628.90625,-0.00359961,-0.41569760
7632.8125,0.00374813,-0.41457242
7636.71875,0.02208387,-0.40857708
7640.625,0.00218835,-0.39404261
7644.53125,0.02381006,-0.36999229
7648.4375,0.00484680,-0.33582497
7652.34375,0.04421015,-0.29243773
7656.25,0.03993674,-0.24254183
7660.15625,0.04103906,-0.18921010
7664.0625,0.07351212,-0.13541135
7667.96875,0.05949937,-0.08478980
7671.875,0.06976990,-0.04265949
7675.78125,0.10423487,-0.01501255
7679.6875,0.07674932,-0.00353487
7683.59375,0.08258868,-0.00347147
7687.5,0.08099524,-0.01008155
7691.40625,0.09501898,-0.02406000
7695.3125,0.05791344,-0.04856592
7699.21875,0.08762313,-0.08502596
7703.125,0.06118597,-0.13162865
7707.03125,0.05112460,-0.18197459
7710.9375,0.03482493,-0.22756353
7714.84375,0.03478143,-0.26587519
7718.75,0.04575413,-0.30348784
7722.65625,0.02313867,-0.34683630
7726.5625,0.00290563,-0.39182353
7730.46875,0.00452265,-0.42694801
7734.375,0.01074927,-0.44563776
7738.28125,0.00196442,-0.45282283
7742.1875,-0.00470794,-0.46112663
7746.09375,0.00376850,-0.48112798
7750.0,-0.00046408,-0.51090324
7753.90625,-0.01861247,-0.53443468
7757.8125,-0.02922338,-0.53635406
7761.71875,-0.00057540,-0.51928860
7765.625,0.01552225,-0.49957749
7769.53125,-0.01673366,-0.48589134
7773.4375,-0.00877753,-0.47242329
7777.34375,0.00851466,-0.45531511
7781.25,0.01120505,-0.44692320
7785.15625,-0.01366148,-0.47194007
7789.0625,-0.00907305,-0.55261165
7792.96875,-0.03056955,-0.68910712
7796.875,-0.06478792,-0.84048134
7800.78125,-0.09410650,-0.92319369
7804.6875,-0.06846169,-0.83540678
7808.59375,0.00390620,-0.48995140
7812.5,0.12175933,0.16125193
7816.40625,0.28965625,1.10630703
7820.3125,0.50769496,2.25017333
7824.21875,0.72651321,3.40737963
7828.125,0.90915155,4.33627653
7832.03125,1.02125657,4.81450605
7835.9375,0.98173559,4.72131252
7839.84375,0.86879176,4.08160019
7843.75,0.65223867,3.04867053
7847.65625,0.42115784,1.83938968
7851.5625,0.23011763,0.66038394
7855.46875,0.02379237,-0.33888063
7859.375,-0.11248980,-1.07789946
7863.28125,-0.19385289,-1.53720486
7867.1875,-0.25123703,-1.74508345
7871.09375,-0.22554491,-1.76119530
7875.0,-0.21418618,-1.65487421
7878.90625,-0.19708188,-1.48405838
7882.8125,-0.14677694,-1.28727138
7886.71875,-0.11662299,-1.08905280
7890.625,-0.06842081,-0.90636337
7894.53125,-0.06204515,-0.75067163
7898.4375,-0.02375129,-0.62962037
7902.34375,0.00313127,-0.54690373
7906.25,-0.00239329,-0.49776152
7910.15625,-0.01080929,-0.46905473
7914.0625,0.00995685,-0.45022565
7917.96875,0.02341969,-0.44148818
7921.875,0.00992186,-0.44639084
7925.78125,0.00341210,-0.46005362
7929.6875,-0.00619148,-0.47059029
7933.59375,0.01002090,-0.47031084
7937.5,0.02943277,-0.45990518
7941.40625,-0.01601367,-0.44299248
7945.3125,0.02202543,-0.42368579
7949.21875,0.01450157,-0.40869635
7953.125,0.03367586,-0.40304965
7957.03125,0.01716250,-0.40199313
7960.9375,-0.00365266,-0.39367875
7964.84375,0.05029276,-0.37161219
7968.75,0.01707134,-0.34004769
7972.65625,0.04571455,-0.30744204
7976.5625,0.04027495,-0.27871615
7980.46875,0.04761949,-0.25255501
7984.375,0.05664789,-0.22271046
7988.28125,0.05597341,-0.18249732
7992.1875,0.07291969,-0.13007537
7996.09375,0.08315355,-0.06992285
8000.0,0.09846903,-0.00920828
8003.90625,0.10031811,0.04674873
8007.8125,0.11314951,0.09647512
8011.71875,0.13625684,0.14343941
8015.625,0.12090746,0.19564088
8019.53125,0.14432673,0.25900099
8023.4375,0.16122615,0.32947683
8027.34375,0.18005729,0.39669207
8031.25,0.17904447,0.45653638
8035.15625,0.19308126,0.51502448
8039.0625,0.19960694,0.57833308
8042.96875,0.23012666,0.64381051
8046.875,0.22238898,0.70312488
8050.78125,0.24483062,0.75089461
8054.6875,0.24497892,0.78820235
8058.59375,0.25526786,0.81997955
8062.5,0.24790001,0.84992564
8066.40625,0.26981136,0.87668073
8070.3125,0.27411103,0.89571738
8074.21875,0.26070461,0.90558612
8078.125,0.27231029,0.91040295
8082.03125,0.27704528,0.91600668
8085.9375,0.26403347,0.92414105
8089.84375,0.26625240,0.92844939
8093.75,0.29559234,0.91832358
8097.65625,0.26136097,0.89210492
8101.5625,0.25793248,0.86307162
8105.46875,0.24476649,0.84455675
8109.375,0.26845670,0.83152837
8113.28125,0.25598031,0.80421740
8117.1875,0.23915794,0.74895704
8121.09375,0.22600217,0.67064619
8125.0,0.20815091,0.58688915
8128.90625,0.19925071,0.51505160
8132.8125,0.18286954,0.46353990
8136.71875,0.18697405,0.42958876
8140.625,0.17544480,0.40223995
8144.53125,0.16622250,0.36803901
8148.4375,0.16817017,0.31638569
8152.34375,0.14066193,0.24293098
8156.25,0.12875068,0.15091202
8160.15625,0.12258425,0.05150986
8164.0625,0.08194438,-0.03737097
8167.96875,0.09096791,-0.09823892
8171.875,0.06381383,-0.12591165
8175.78125,0.09255771,-0.13309248
8179.6875,0.06000805,-0.14297567
8183.59375,0.08012405,-0.17516991
8187.5,0.06512933,-0.23392268
8191.40625,0.03991582,-0.30469275
8195.3125,0.02136259,-0.36441582
8199.21875,0.02308723,-0.40022632
8203.125,0.04486300,-0.41673547
8207.03125,0.02485858,-0.42319119
8210.9375,0.00771134,-0.42061609
8214.84375,0.01998213,-0.40809977
8218.75,0.04056495,-0.39496890
8222.65625,0.03748213,-0.39643103
8226.5625,0.01072233,-0.41883361
8230.46875,0.01860007,-0.45523721
8234.375,0.02100227,-0.49235937
8238.28125,-0.00514012,-0.51768416
8242.1875,0.00536267,-0.52522659
8246.09375,0.00620469,-0.51988810
8250.0,0.01537475,-0.51380318
8253.90625,0.00398863,-0.51623756
8257.8125,-0.00694990,-0.52846128
8261.71875,0.01353404,-0.54605418
8265.625,0.00188970,-0.56047612
8269.53125,-0.00504648,-0.55993450
8273.4375,-0.00474430,-0.53744423
8277.34375,0.00778567,-0.50136793
8281.25,0.02867502,-0.47318894
8285.15625,0.01036137,-0.47072414
8289.0625,0.02703296,-0.49256414
8292.96875,-0.01046290,-0.51791394
8296.875,0.00953540,-0.52182209
8300.78125,0.00851809,-0.49359787
8304.6875,0.02534926,-0.44317049
8308.59375,0.04399617,-0.38982278
8312.5,0.03538314,-0.34450302
8316.40625,0.03517936,-0.30409199
8320.3125,0.07044960,-0.26119050
8324.21875,0.05938282,-0.21382397
8328.125,0.08133672,-0.16433750
8332.03125,0.07923105,-0.11374420
8335.9375,0.10165128,-0.06016915
8339.84375,0.09765868,-0.00306495
8343.75,0.11675107,0.04988878
8347.65625,0.11740339,0.08074196
8351.5625,0.13695382,0.07151385
8355.46875,0.10727115,0.02152968
8359.375,0.09220717,-0.04682957
8363.28125,0.08370978,-0.10398528
8367.1875,0.08269131,-0.13587713
8371.09375,0.08556352,-0.15161671
8375.0,0.06319879,-0.17250252
8378.90625,0.08069087,-0.21484324
8382.8125,0.05597860,-0.27842814
8386.71875,0.03369813,-0.34740242
8390.625,0.03266596,-0.40314642
8394.53125,0.02442132,-0.43711248
8398.4375,0.02916076,-0.45235839
8402.34375,0.01068122,-0.45768112
8406.25,0.03525352,-0.46254465
8410.15625,0.01326642,-0.47270870
8414.0625,0.01301366,-0.48630315
8417.96875,0.02576821,-0.49482182
8421.875,0.00492666,-0.49070919
8425.78125,0.01339504,-0.47702751
8429.6875,0.03462157,-0.46875709
8433.59375,0.01787741,-0.47881263
8437.5,0.01632781,-0.50178134
8441.40625,0.00677264,-0.51729059
8445.3125,-0.00041534,-0.51302570
8449.21875,0.02980600,-0.50280428
8453.125,0.00070547,-0.51924640
8457.03125,0.01378684,-0.58695406
8460.9375,-0.03434649,-0.69857228
8464.84375,-0.02887684,-0.80720413
8468.75,-0.05237919,-0.83316547
8472.65625,-0.01994568,-0.68012863
8476.5625,0.06552597,-0.25971633
8480.46875,0.19476153,0.47672153
8484.375,0.39555004,1.50411630
8488.28125,0.59627730,2.69806552
8492.1875,0.82819152,3.83779049
8496.09375,1.01618421,4.65878153
8500.0,1.04514492,4.94702530
8503.90625,0.99081916,4.62469673
8507.8125,0.82336408,3.77616692
8511.71875,0.59587836,2.60654306
8515.625,0.35042077,1.36055553
8519.53125,0.14434341,0.24006574
8523.4375,0.01304210,-0.64235181
8527.34375,-0.12312108,-1.25762475
8531.25,-0.20517007,-1.62522948
8535.15625,-0.23142789,-1.78490555
8539.0625,-0.20879939,-1.78373551
8542.96875,-0.20695351,-1.66793513
8546.875,-0.16600958,-1.47808456
8550.78125,-0.13008410,-1.25160050
8554.6875,-0.09227085,-1.02638590
8558.59375,-0.02459034,-0.83619517
8562.5,-0.02170639,-0.69871342
8566.40625,-0.00744596,-0.60984510
8570.3125,-0.00064093,-0.55361140
8574.21875,0.02099357,-0.51742327
8578.125,0.01645049,-0.49714395
8582.03125,0.02110605,-0.49220219
8585.9375,0.02049866,-0.50018579
8589.84375,0.01562203,-0.51437759
8593.75,0.01520609,-0.52401090
8597.65625,0.00134845,-0.51936907
8601.5625,0.01764118,-0.49965209
8605.46875,0.05110679,-0.47294438
8609.375,0.01213434,-0.44554248
8613.28125,0.02922025,-0.41622597
8617.1875,0.03568906,-0.38451660
8621.09375,0.04885029,-0.35814169
8625.0,0.06968939,-0.34554338
8628.90625,0.03674053,-0.34274957
8632.8125,0.03516949,-0.33399934
8636.71875,0.06312515,-0.30748782
8640.625,0.05821564,-0.26709074
8644.53125,0.08556919,-0.22710018
8648.4375,0.07663001,-0.19743615
8652.34375,0.06695118,-0.17565297
8656.25,0.08029507,-0.15373006
8660.15625,0.09603719,-0.12922123
8664.0625,0.10589407,-0.10434910
8667.96875,0.09580046,-0.07565612
8671.875,0.09641037,-0.03283483
8675.78125,0.11086892,0.02842822
8679.6875,0.14859831,0.09810209
8683.59375,0.15082563,0.16183226
8687.5,0.14242874,0.21598142
8691.40625,0.16983321,0.26819262
8695.3125,0.16530211,0.32680023
8699.21875,0.19748002,0.39447284
8703.125,0.20220846,0.46965995
8707.03125,0.21758200,0.54953939
8710.9375,0.23454376,0.63157195
8714.84375,0.24848151,0.71479541
8718.75,0.25705725,0.79855114
8722.65625,0.28108141,0.87666470
8726.5625,0.30269280,0.93522769
8730.46875,0.29134798,0.96174216
8734.375,0.28493449,0.95673215
8738.28125,0.30107304,0.93485427
8742.1875,0.28684452,0.91697699
8746.09375,0.28781494,0.92066640
8750.0,0.28802267,0.95145148
8753.90625,0.30132723,0.99767625
8757.8125,0.31062162,1.03433788
8761.71875,0.31902084,1.03688085
8765.625,0.30347699,0.99726808
8769.53125,0.28996620,0.92964888
8773.4375,0.26618394,0.85923088
8777.34375,0.26715833,0.80330253
8781.25,0.26361519,0.76116055
8785.15625,0.24566782,0.71974051
8789.0625,0.25884902,0.66727561
8792.96875,0.21547057,0.60279155
8796.875,0.20514920,0.53329390
8800.78125,0.20641844,0.46318066
8804.6875,0.21394123,0.39176577
8808.59375,0.15609726,0.32141265
8812.5,0.15579474,0.25944990
8816.40625,0.16971315,0.20952649
8820.3125,0.13473219,0.16699249
8824.21875,0.15660392,0.12321596
8828.125,0.11151640,0.07097826
8832.03125,0.12424472,0.00743456
8835.9375,0.10088775,-0.06420838
8839.84375,0.09862854,-0.13492748
8843.75,0.07247013,-0.19440711
8847.65625,0.05804117,-0.23909129
8851.5625,0.07966426,-0.27554244
8855.46875,0.05766534,-0.31232318
8859.375,0.04725219,-0.34904042
8863.28125,0.03984903,-0.37725011
8867.1875,0.03595615,-0.39143938
8871.09375,0.06063494,-0.39477310
8875.0,0.02970468,-0.39446160
8878.90625,0.03109072,-0.39675009
8882.8125,0.05843096,-0.40640858
8886.71875,0.02724233,-0.42480272
8890.625,0.03029405,-0.44717997
8894.53125,0.03300279,-0.46496901
8898.4375,0.02353190,-0.47137636
8902.34375,0.01755202,-0.46751228
8906.25,0.04008606,-0.46589109
8910.15625,0.02768602,-0.48257449
8914.0625,0.01555937,-0.52038813
8917.96875,0.00589352,-0.56258118
8921.875,0.00815425,-0.58582914
8925.78125,0.00939934,-0.57835925
8929.6875,-0.00441127,-0.54743630
8933.59375,0.03544428,-0.51358539
8937.5,0.02263189,-0.49626327
8941.40625,0.02808837,-0.50028163
8945.3125,0.00511361,-0.51440167
8949.21875,0.01713843,-0.52313143
8953.125,0.02132597,-0.51904982
8957.03125,0.02690896,-0.50404292
8960.9375,0.02600201,-0.48167586
8964.84375,0.01683248,-0.45198348
8968.75,0.04911350,-0.41352427
8972.65625,0.04981700,-0.36659515
8976.5625,0.04856138,-0.31356946
8980.46875,0.06747620,-0.25944415
8984.375,0.07794524,-0.21186309
8988.28125,0.08923502,-0.17640094
8992.1875,0.08388853,-0.15077563
8996.09375,0.08751170,-0.12630136
9000.0,0.09432513,-0.09633192
9003.90625,0.11848751,-0.06165503
9007.8125,0.10550658,-0.02710119
9011.71875,0.10709819,0.00330369
9015.625,0.12656239,0.02532672
9019.53125,0.12561403,0.03270733
9023.4375,0.12402515,0.02046756
9027.34375,0.10107528,-0.01104360
9031.25,0.10794011,-0.05644570
9035.15625,0.10702535,-0.10736986
9039.0625,0.08115235,-0.15451938
9042.96875,0.07423387,-0.19326097
9046.875,0.06455972,-0.22991216
9050.78125,0.07758132,-0.27743673
9054.6875,0.06219558,-0.33962417
9058.59375,0.02833327,-0.40190157
9062.5,0.02028175,-0.44324911
9066.40625,0.04151032,-0.45640317
9070.3125,0.02732376,-0.45288771
9074.21875,0.03332170,-0.45116743
9078.125,0.02790977,-0.46306837
9082.03125,0.03522713,-0.48708466
9085.9375,0.00246149,-0.51112056
9089.84375,0.01460551,-0.52480292
9093.75,0.02365641,-0.52959448
9097.65625,0.02309749,-0.53321385
9101.5625,0.00864347,-0.53669590
9105.46875,0.01341333,-0.53357995
9109.375,0.01213757,-0.52204460
9113.28125,0.01819468,-0.51402700
9117.1875,0.02231583,-0.53147078
9121.09375,0.00266678,-0.59265268
9125.0,-0.00960429,-0.69689566
9128.90625,-0.05126576,-0.81580436
9132.8125,-0.05462264,-0.89425164
9136.71875,-0.01776501,-0.85622203
9140.625,-0.02076742,-0.61296004
9144.53125,0.11219148,-0.08276808
9148.4375,0.25148454,0.77078289
9152.34375,0.44254118,1.89324915
9156.25,0.71455002,3.11468410
9160.15625,0.91628623,4.17911291
9164.0625,1.02231777,4.83021116
9167.96875,1.05598724,4.90733051
9171.875,0.94340217,4.39945173
9175.78125,0.76115912,3.43747115
9179.6875,0.53104949,2.23671126
9183.59375,0.29601458,1.02027559
9187.5,0.10829082,-0.04180832
9191.40625,-0.04194034,-0.85693109
9195.3125,-0.15187338,-1.40108287
9199.21875,-0.19701117,-1.69566810
9203.125,-0.22536057,-1.78549802
9207.03125,-0.20788355,-1.72323298
9210.9375,-0.18640955,-1.56122100
9214.84375,-0.13983023,-1.34879100
9218.75,-0.08018839,-1.12872601
9222.65625,-0.06973541,-0.93106818
9226.5625,-0.04952964,-0.77209020
9230.46875,0.00862147,-0.65952533
9234.375,0.00700377,-0.59267205
9238.28125,0.00408470,-0.55779201
9242.1875,0.01360991,-0.53332227
9246.09375,0.00821626,-0.50510633
9250.0,0.03192531,-0.47564593
9253.90625,0.03026524,-0.45856622
9257.8125,0.03016695,-0.46445704
9261.71875,0.02624374,-0.49032325
9265.625,0.00012551,-0.52115464
9269.53125,0.01180673,-0.54127222
9273.4375,0.03102616,-0.54287666
9277.34375,-0.00240974,-0.52493483
9281.25,0.03064328,-0.49032941
9285.15625,0.02177972,-0.44648373
9289.0625,0.04455354,-0.40356138
9292.96875,0.03788428,-0.36904532
9296.875,0.05669621,-0.34456050
9300.78125,0.05227927,-0.32615542
9304.6875,0.05435745,-0.30643848
9308.59375,0.04663550,-0.27996540
9312.5,0.07175629,-0.24868239
9316.40625,0.09929008,-0.21769026
9320.3125,0.05734984,-0.18462749
9324.21875,0.07335534,-0.14109951
9328.125,0.11400046,-0.08586053
9332.03125,0.10917766,-0.02774471
9335.9375,0.10907949,0.02457319
9339.84375,0.13216239,0.06904207
9343.75,0.13742122,0.11005013
9347.65625,0.13669513,0.15748440
9351.5625,0.14796987,0.22134750
9355.46875,0.17799500,0.30218282
9359.375,0.18377317,0.38859478
9363.28125,0.20457593,0.46602759
9367.1875,0.21142703,0.52722609
9371.09375,0.20797086,0.57437497
9375.0,0.24507037,0.61349469
9378.90625,0.22669286,0.64938414
9382.8125,0.24273080,0.68523365
9386.71875,0.24845040,0.72390324
9390.625,0.24984641,0.76817995
9394.53125,0.28196922,0.81980872
9398.4375,0.26861036,0.87714398
9402.34375,0.27859107,0.93186295
9406.25,0.30240038,0.96949798
9410.15625,0.30441850,0.97898859
9414.0625,0.28814596,0.96332663
9417.96875,0.28006721,0.93668020
9421.875,0.29326326,0.91145802
9425.78125,0.27269819,0.89173901
9429.6875,0.27575201,0.87595981
9433.59375,0.27793285,0.86074024
9437.5,0.27417901,0.84387749
9441.40625,0.26177886,0.82628769
9445.3125,0.25804469,0.80908090
9449.21875,0.26682198,0.78808093
9453.125,0.24744144,0.75345343
9457.03125,0.24550916,0.69527382
9460.9375,0.22825497,0.61027551
9464.84375,0.20847011,0.50661314
9468.75,0.17907904,0.40269023
9472.65625,0.16547658,0.31719938
9476.5625,0.16915633,0.25751346
9480.46875,0.15253749,0.21757092
9484.375,0.13451132,0.18458006
9488.28125,0.13926700,0.14588331
9492.1875,0.13808334,0.09415203
9496.09375,0.11210673,0.03164440
9500.0,0.10402198,-0.03155915
9503.90625,0.08707569,-0.08668613
9507.8125,0.07663835,-0.13391769
9511.71875,0.10045520,-0.17958559
9515.625,0.05420111,-0.22570211
9519.53125,0.06047500,-0.26529413
9523.4375,0.05078827,-0.29013354
9527.34375,0.04917263,-0.30092233
9531.25,0.05795247,-0.30811945
9535.15625,0.05276456,-0.32311514
9539.0625,0.03510540,-0.34865806
9542.96875,0.04668470,-0.37746286
9546.875,0.02085180,-0.39960614
9550.78125,0.03156022,-0.41128272
9554.6875,0.04624493,-0.41648376
9558.59375,0.01587920,-0.42146719
9562.5,0.02347729,-0.43110681
9566.40625,0.03745795,-0.44920072
9570.3125,0.00804757,-0.47562614
9574.21875,0.01780717,-0.50281185
9578.125,0.01230686,-0.51967758
9582.03125,0.00188075,-0.51993698
9585.9375,0.01946867,-0.50640160
9589.84375,0.00394405,-0.48887762
9593.75,0.03351665,-0.47794947
9597.65625,0.01359126,-0.47842389
9601.5625,0.01065363,-0.48710987
9605.46875,0.01366259,-0.49682710
9609.375,0.01461176,-0.50215095
9613.28125,0.01146757,-0.50195366
9617.1875,0.01538422,-0.49899030
9621.09375,0.00910493,-0.49776784
9625.0,0.01190553,-0.50040060
9628.90625,0.02684672,-0.50185710
9632.8125,-0.00162729,-0.49024019
9636.71875,0.01888449,-0.45650658
9640.625,0.03411505,-0.40525809
9644.53125,0.04474186,-0.35215810
9648.4375,0.04359465,-0.30967903
9652.34375,0.05843150,-0.27685091
9656.25,0.06171979,-0.24160522
9660.15625,0.05293129,-0.19265305
9664.0625,0.09566530,-0.13067502
9667.96875,0.09597925,-0.06726911
9671.875,0.08840492,-0.01403284
9675.78125,0.12299475,0.02405633
9679.6875,0.11671890,0.04731024
9683.59375,0.10202666,0.05754870
9687.5,0.12132896,0.05368689
9691.40625,0.11070876,0.03049164
9695.3125,0.10831243,-0.01576659
9699.21875,0.08360019,-0.08125949
9703.125,0.07541107,-0.15547960
9707.03125,0.06282231,-0.22611491
9710.9375,0.05663705,-0.28288141
9714.84375,0.02609354,-0.32148719
9718.75,0.05821680,-0.34717962
9722.65625,0.02329908,-0.37143975
9726.5625,0.03758984,-0.40254211
9730.46875,0.00954601,-0.44034809
9734.375,0.02194717,-0.47904256
9738.28125,0.00261727,-0.51115614
9742.1875,0.01390092,-0.52889466
9746.09375,-0.00714893,-0.52686572
9750.0,0.00340717,-0.50897253
9753.90625,0.01731610,-0.49182704
9757.8125,0.01117506,-0.49524969
9761.71875,0.01009581,-0.52500522
9765.625,-0.00267251,-0.56437105
9769.53125,-0.01907673,-0.58453411
9773.4375,-0.00386495,-0.56765467
9777.34375,-0.00015929,-0.52441627
9781.25,0.02155602,-0.49044114
9785.15625,0.00563423,-0.50345266
9789.0625,-0.00725979,-0.57900953
9792.96875,-0.03377943,-0.70061994
9796.875,-0.05432198,-0.82357007
9800.78125,-0.04987931,-0.88074094
9804.6875,-0.04993294,-0.78679293
9808.59375,0.00727875,-0.45176038
9812.5,0.15135391,0.18822783
9816.40625,0.29527766,1.13203895
9820.3125,0.52574885,2.28360939
9824.21875,0.75362545,3.45034194
9828.125,0.93216807,4.38470840
9832.03125,1.01621497,4.86077070
9835.9375,1.02609527,4.75381660
9839.84375,0.86198074,4.08712101
9843.75,0.66064227,3.02066517
9847.65625,0.43882793,1.78561151
9851.5625,0.19893073,0.60187447
9855.46875,0.03034697,-0.38035196
9859.375,-0.10268226,-1.09703112
9863.28125,-0.18608944,-1.54975760
9867.1875,-0.22694948,-1.77051985
9871.09375,-0.25047156,-1.79852688
9875.0,-0.22315040,-1.67924976
9878.90625,-0.16772103,-1.47070420
9882.8125,-0.12823948,-1.23706555
9886.71875,-0.10845323,-1.03096795
9890.625,-0.05331896,-0.88002598
9894.53125,-0.05061134,-0.78383309
9898.4375,-0.03697411,-0.72048676
9902.34375,-0.03297924,-0.66282332
9906.25,-0.01523543,-0.59680229
9910.15625,0.00741664,-0.52804130
9914.0625,0.00003626,-0.47331649
9917.96875,0.02509271,-0.44663724
9921.875,0.01612032,-0.44879529
9925.78125,0.00264746,-0.46564472
9929.6875,0.00516466,-0.47820434
9933.59375,0.00636716,-0.47706223
9937.5,0.02227553,-0.46597931
9941.40625,0.00725497,-0.45239878
9945.3125,0.01355583,-0.43930620
9949.21875,0.00709003,-0.42771468
9953.125,0.03404321,-0.42062747
9957.03125,0.01720616,-0.41815463
9960.9375,0.01700328,-0.41182861
9964.84375,0.01036163,-0.39124233
9968.75,0.04454162,-0.35650113
9972.65625,0.03072781,-0.31942683
9976.5625,0.04243342,-0.29279503
9980.46875,0.04439616,-0.28010911
9984.375,0.05373984,-0.27175060
9988.28125,0.03946949,-0.24798456
9992.1875,0.06175660,-0.19066937
9996.09375,0.06670355,-0.09826384
10000.0,0.11499057,0.01026182
10003.90625,0.11473481,0.10812446
10007.8125,0.11409126,0.17669936
10011.71875,0.14942352,0.21183744
10015.625,0.14607793,0.22431684
10019.53125,0.12612133,0.23719399
10023.4375,0.13859142,0.27301922
10027.34375,0.16912889,0.33770701
10031.25,0.17701225,0.42000735
10035.15625,0.19221900,0.50563955
10039.0625,0.19139430,0.58688277
10042.96875,0.23469189,0.66083062
10046.875,0.21908709,0.72558457
10050.78125,0.24686258,0.78036344
10054.6875,0.26028222,0.82783413
10058.59375,0.24419855,0.87429404
10062.5,0.26557261,0.92342705
10066.40625,0.28408170,0.96933907
10070.3125,0.28755686,1.00117993
10074.21875,0.28287631,1.01564789
10078.125,0.28157562,1.01971817
10082.03125,0.27829778,1.01956129
10085.9375,0.29221991,1.01133204
10089.84375,0.28222877,0.98685604
10093.75,0.27357984,0.94712389
10097.65625,0.26193637,0.90576905
10101.5625,0.24562639,0.87625849
10105.46875,0.25283682,0.85626209
10109.375,0.26926312,0.82845557
10113.28125,0.23207831,0.77869898
10117.1875,0.22032307,0.71013534
10121.09375,0.21454059,0.63862556
10125.0,0.20369536,0.57927734
10128.90625,0.18790935,0.53721291
10132.8125,0.19039379,0.50453407
10136.71875,0.17445995,0.46394333
10140.625,0.17256887,0.39982632
10144.53125,0.15348573,0.31081402
10148.4375,0.13657892,0.21348192
10152.34375,0.09745817,0.13151981
10156.25,0.11378291,0.07718500
10160.15625,0.09274521,0.04159248
10164.0625,0.10318661,0.00323539
10167.96875,0.08136063,-0.05339555
10171.875,0.06214394,-0.12529168
10175.78125,0.05620693,-0.19382009
10179.6875,0.04036553,-0.23932976
10183.59375,0.04089973,-0.25571021
10187.5,0.04456191,-0.25414765
10191.40625,0.04884250,-0.25345027
10195.3125,0.03543782,-0.26603547
10199.21875,0.03397780,-0.29243279
10203.125,0.03054434,-0.32646468
10207.03125,0.01205062,-0.36278489
10210.9375,0.02991210,-0.39973405
10214.84375,-0.00678606,-0.43693230
10218.75,0.00825748,-0.47135168
10222.65625,-0.00184420,-0.49603295
10226.5625,-0.02112273,-0.50358528
10230.46875,0.02064408,-0.49262536
10234.375,-0.02471878,-0.47146848
10238.28125,0.00625754,-0.45564443
10242.1875,0.01842315,-0.45904979
10246.09375,-0.00644812,-0.48202232
10250.0,-0.00616567,-0.50865608
10253.90625,-0.02820696,-0.52162975
10257.8125,-0.00893862,-0.52028656
10261.71875,0.01106961,-0.51942492
10265.625,-0.01288130,-0.52883863
10269.53125,-0.01843824,-0.53969246
10273.4375,-0.03448572,-0.53597051
10277.34375,0.00900954,-0.51486164
10281.25,-0.00089841,-0.48896256
10285.15625,-0.00849207,-0.47073323
10289.0625,0.00912421,-0.46091691
10292.96875,-0.00764239,-0.45139086
10296.875,-0.00239334,-0.43537971
10300.78125,0.03089888,-0.41313455
10304.6875,-0.00053281,-0.38785633
10308.59375,0.01959876,-0.36030251
10312.5,0.02576715,-0.33028328
10316.40625,0.03221060,-0.29865560
10320.3125,0.03986466,-0.26436436
10324.21875,0.03334647,-0.22395769
10328.125,0.05670008,-0.17788894
10332.03125,0.06437225,-0.13409749
10335.9375,0.06727713,-0.10070652
10339.84375,0.07190556,-0.07589849
10343.75,0.07462440,-0.04880901
10347.65625,0.07946397,-0.01216243
10351.5625,0.09422415,0.02656525
10355.46875,0.08747857,0.04738128
10359.375,0.10237721,0.03214026
10363.28125,0.08327632,-0.02091593
10367.1875,0.06090542,-0.09457588
10371.09375,0.05257204,-0.16415946
10375.0,0.04746622,-0.21270862
10378.90625,0.03583654,-0.23907077
10382.8125,0.03098984,-0.25733492
10386.71875,0.04588549,-0.28817514
10390.625,0.01336532,-0.34342465
10394.53125,0.01043330,-0.41474584
10398.4375,-0.01071000,-0.47833905
10402.34375,-0.01865125,-0.51236111
10406.25,-0.00558572,-0.51209790
10410.15625,-0.01148996,-0.49185920
10414.0625,-0.00593897,-0.47410244
10417.96875,0.00655895,-0.47382548
10421.875,-0.01682652,-0.48876071
10425.78125,-0.01960586,-0.50438350
10429.6875,-0.00013740,-0.50938880
10433.59375,-0.01747000,-0.50455970
10437.5,-0.01188362,-0.49859893
10441.40625,-0.01434375,-0.50017369
10445.3125,0.00831250,-0.51272964
10449.21875,-0.03731792,-0.53467667
10453.125,-0.03335101,-0.56809378
10457.03125,-0.02749182,-0.62557334
10460.9375,-0.03871523,-0.71647346
10464.84375,-0.08296510,-0.81797165
10468.75,-0.06263166,-0.85840261
10472.65625,-0.05764320,-0.72818822
10476.5625,0.01498629,-0.31626463
10480.46875,0.15449826,0.43695524
10484.375,0.36258346,1.49224854
10488.28125,0.59308887,2.69863796
10492.1875,0.79528755,3.82512450
10496.09375,0.96600926,4.62463331
10500.0,1.01502526,4.90877914
10503.90625,0.94422501,4.60770273
10507.8125,0.81699336,3.79091239
10511.71875,0.56292695,2.64089036
10515.625,0.34061009,1.39022911
10519.53125,0.11492737,0.24732351
10523.4375,-0.04163164,-0.65694422
10527.34375,-0.15055454,-1.27980936
10531.25,-0.21860565,-1.63972962
10535.15625,-0.26266649,-1.77966142
10539.0625,-0.25068447,-1.74698460
10542.96875,-0.22151583,-1.59285665
10546.875,-0.17098358,-1.37428856
10550.78125,-0.13755476,-1.14667678
10554.6875,-0.09489340,-0.95012033
10558.59375,-0.06754692,-0.80034149
10562.5,-0.05894151,-0.69243652
10566.40625,-0.03860382,-0.61580962
10570.3125,-0.01377466,-0.56639916
10574.21875,-0.02718724,-0.54488552
10578.125,-0.02927722,-0.54774618
10582.03125,-0.01461164,-0.56339419
10585.9375,-0.03479315,-0.57450289
10589.84375,-0.02146066,-0.56405693
10593.75,-0.02482613,-0.52487010
10597.65625,-0.01505658,-0.46738410
10601.5625,0.00687234,-0.41627660
10605.46875,0.02041286,-0.39307910
10609.375,0.00142080,-0.39829433
10613.28125,-0.01520386,-0.41313705
10617.1875,0.00744999,-0.41942963
10621.09375,0.00644609,-0.41306335
10625.0,-0.00269713,-0.39914602
10628.90625,0.01868049,-0.38185585
10632.8125,0.00636297,-0.36099190
10636.71875,0.00978755,-0.33473721
10640.625,0.02255384,-0.30405882
10644.53125,0.03579339,-0.27314019
10648.4375,0.02945194,-0.24442452
10652.34375,0.04505707,-0.21534164
10656.25,0.02639248,-0.18258137
10660.15625,0.06003340,-0.14871116
10664.0625,0.05958560,-0.12026361
10667.96875,0.06845295,-0.09673072
10671.875,0.05438790,-0.06504606
10675.78125,0.07780001,-0.00975945
10679.6875,0.08520303,0.07176863
10683.59375,0.12476946,0.16677584
10687.5,0.11810681,0.25836167
10691.40625,0.14433125,0.33677962
10695.3125,0.16094764,0.40222445
10699.21875,0.15846324,0.46139884
10703.125,0.16453430,0.52057725
10707.03125,0.20296507,0.57985157
10710.9375,0.20275234,0.63618529
10714.84375,0.19544379,0.69080567
10718.75,0.22594801,0.74821997
10722.65625,0.22135164,0.80794162
10726.5625,0.24309243,0.86059958
10730.46875,0.25457028,0.89348328
10734.375,0.24083841,0.90170336
10738.28125,0.26128197,0.89594138
10742.1875,0.22266975,0.89756638
10746.09375,0.26742995,0.92166990
10750.0,0.23800172,0.96229708
10753.90625,0.29107714,0.99576217
10757.8125,0.26286927,1.00070465
10761.71875,0.24773796,0.97429997
10765.625,0.26386538,0.92922336
10769.53125,0.23477326,0.87990040
10773.4375,0.23838042,0.83360177
10777.34375,0.22524132,0.78952962
10781.25,0.21944606,0.74275243
10785.15625,0.20267658,0.69000918
10789.0625,0.20392805,0.63306618
10792.96875,0.17852835,0.57669169
10796.875,0.17708798,0.52331275
10800.78125,0.17134242,0.47049204
10804.6875,0.14458133,0.41390330
10808.59375,0.14967203,0.35095453
10812.5,0.13349830,0.28159618
10816.40625,0.11236390,0.20813870
10820.3125,0.09829443,0.13443395
10824.21875,0.09282438,0.06423830
10828.125,0.07738941,0.00087627
10832.03125,0.06659506,-0.05198927
10835.9375,0.06167452,-0.09087022
10839.84375,0.05182609,-0.11485232
10843.75,0.04738082,-0.12898962
10847.65625,0.05549295,-0.14542240
10851.5625,0.04238132,-0.17768142
10855.46875,0.03523818,-0.23027973
10859.375,0.02545621,-0.29287553
10863.28125,0.00678596,-0.34570491
10867.1875,-0.00336405,-0.37439325
10871.09375,0.00248267,-0.38300887
10875.0,0.01577889,-0.39063811
10878.90625,0.01271220,-0.41066226
10882.8125,-0.02198973,-0.43548694
10886.71875,-0.02822804,-0.44800809
10890.625,0.01104915,-0.44535816
10894.53125,0.00623881,-0.44147694
10898.4375,-0.01992691,-0.44759744
10902.34375,-0.01464737,-0.46098232
10906.25,-0.01422776,-0.47289640
10910.15625,-0.00251606,-0.47835097
10914.0625,-0.02237853,-0.47707915
10917.96875,-0.01004981,-0.47182345
10921.875,-0.01436753,-0.46786126
10925.78125,-0.01442702,-0.47089437
10929.6875,-0.00564754,-0.48251808
10933.59375,-0.01666566,-0.49696162
10937.5,-0.03377657,-0.50429553
10941.40625,-0.00735331,-0.49969575
10945.3125,-0.02355698,-0.48885944
10949.21875,-0.00613935,-0.48223326
10953.125,-0.01250746,-0.48396817
10957.03125,-0.02564336,-0.48738179
10960.9375,-0.00838668,-0.48133770
10964.84375,-0.01578786,-0.46005338
10968.75,-0.00069791,-0.42676890
10972.65625,-0.00352102,-0.39042157
10976.5625,0.01981078,-0.35931417
10980.46875,0.00656749,-0.33491150
10984.375,0.01904845,-0.30973771
10988.28125,0.02411633,-0.27214783
10992.1875,0.03240846,-0.21544987
10996.09375,0.04805296,-0.14526549
11000.0,0.06265337,-0.07869020
11003.90625,0.07452213,-0.03320659
11007.8125,0.07453963,-0.01341960
11011.71875,0.07260630,-0.00899362
11015.625,0.06121266,-0.00700335
11019.53125,0.09066234,-0.00484509
11023.4375,0.07032223,-0.00886077
11027.34375,0.07611158,-0.02374995
11031.25,0.05159815,-0.04917553
11035.15625,0.07427342,-0.08457331
11039.0625,0.05528427,-0.12990722
11042.96875,0.02687877,-0.18229868
11046.875,0.03242033,-0.23789194
11050.78125,0.03559072,-0.29444975
11054.6875,0.00941393,-0.34680429
11058.59375,-0.01582620,-0.38600793
11062.5,0.00420514,-0.40973568
11066.40625,0.01609532,-0.42681509
11070.3125,-0.02904203,-0.44586438
11074.21875,-0.00049973,-0.46565714
11078.125,-0.01777202,-0.47966149
11082.03125,-0.01765048,-0.48518437
11085.9375,-0.01536522,-0.48713467
11089.84375,-0.01827464,-0.49470109
11093.75,-0.00856913,-0.51251000
11097.65625,-0.03322124,-0.53335595
11101.5625,-0.02050339,-0.54146194
11105.46875,-0.03094011,-0.52610004
11109.375,-0.02637196,-0.49472141
11113.28125,0.01396102,-0.47297397
11117.1875,-0.03556660,-0.49013078
11121.09375,-0.02791989,-0.56301242
11125.0,-0.04332318,-0.68751287
11128.90625,-0.08835784,-0.83334649
11132.8125,-0.09478869,-0.94083965
11136.71875,-0.10087643,-0.92527223
11140.625,-0.04105354,-0.69032508
11144.53125,0.04106937,-0.15253325
11148.4375,0.20537461,0.71963394
11152.34375,0.40881789,1.86242235
11156.25,0.66633487,3.09935498
11160.15625,0.86929893,4.17670822
11164.0625,1.00751400,4.84522247
11167.96875,1.00485361,4.94642925
11171.875,0.91797894,4.45999098
11175.78125,0.73561835,3.49874830
11179.6875,0.51574153,2.26683998
11183.59375,0.24544394,0.99942070
11187.5,0.05399663,-0.10268067
11191.40625,-0.09654646,-0.92289633
11195.3125,-0.20037055,-1.44123721
11199.21875,-0.23004720,-1.70637095
11203.125,-0.24835704,-1.78789997
11207.03125,-0.26416656,-1.73990107
11210.9375,-0.23130010,-1.59662855
11214.84375,-0.17497706,-1.38950121
11218.75,-0.14295836,-1.15663373
11222.65625,-0.09671893,-0.93629050
11226.5625,-0.07149459,-0.75737351
11230.46875,-0.03519542,-0.63450259
11234.375,-0.02030477,-0.56571180
11238.28125,-0.04729680,-0.53550512
11242.1875,-0.00425911,-0.52575999
11246.09375,-0.02364888,-0.52491421
11250.0,-0.02989239,-0.52735668
11253.90625,-0.00792051,-0.52863264
11257.8125,-0.02589686,-0.52369416
11261.71875,-0.02815273,-0.51058167
11265.625,-0.01598204,-0.49628851
11269.53125,0.00591659,-0.49336505
11273.4375,-0.03056832,-0.50562477
11277.34375,-0.01931006,-0.52143925
11281.25,-0.02486379,-0.52457964
11285.15625,-0.01642724,-0.50755459
11289.0625,-0.00077569,-0.47254434
11292.96875,-0.01143262,-0.42462713
11296.875,0.01198475,-0.36936730
11300.78125,0.01387931,-0.31606737
11304.6875,0.02615334,-0.27761802
11308.59375,0.04596412,-0.26167426
11312.5,0.01708525,-0.26077873
11316.40625,0.02980696,-0.25468844
11320.3125,0.03558071,-0.22552076
11324.21875,0.04529035,-0.17068501
11328.125,0.06406822,-0.10215320
11332.03125,0.07555237,-0.03552326
11335.9375,0.07200020,0.02026993
11339.84375,0.10432442,0.06604585
11343.75,0.09586252,0.11003364
11347.65625,0.10895362,0.16237251
11351.5625,0.11125621,0.22636618
11355.46875,0.14182258,0.29324207
11359.375,0.15480791,0.35032079
11363.28125,0.15801518,0.39679244
11367.1875,0.14421655,0.44651696
11371.09375,0.17901807,0.51166689
11375.0,0.20064148,0.58811700
11378.90625,0.19964159,0.66030586
11382.8125,0.21402602,0.71609467
11386.71875,0.23115036,0.75477141
11390.625,0.21212447,0.78503031
11394.53125,0.25147310,0.81779176
11398.4375,0.22610192,0.85892153
11402.34375,0.25567433,0.90552008
11406.25,0.26585832,0.94769096
11410.15625,0.25603110,0.97505724
11414.0625,0.26937535,0.98320705
11417.96875,0.27000573,0.97613263
11421.875,0.25659963,0.96402675
11425.78125,0.25539777,0.95568770
11429.6875,0.26629430,0.94998443
11433.59375,0.25518832,0.93589002
11437.5,0.25236204,0.90151960
11441.40625,0.24260750,0.84277201
11445.3125,0.22235020,0.76530260
11449.21875,0.20710579,0.68038386
11453.125,0.19737098,0.59896111
11457.03125,0.18279958,0.52845764
11460.9375,0.16343139,0.47228000
11464.84375,0.16880372,0.42942256
11468.75,0.15319730,0.39479482
11472.65625,0.15280895,0.36126053
11476.5625,0.13735777,0.32138002
11480.46875,0.13278000,0.26857451
11484.375,0.13026591,0.20020299
11488.28125,0.09377927,0.12079620
11492.1875,0.09176224,0.04009891
11496.09375,0.07989766,-0.03246758
11500.0,0.06422486,-0.09058786
11503.90625,0.05121297,-0.13194022
11507.8125,0.05767437,-0.15990898
11511.71875,0.05217522,-0.18199746
11515.625,0.03836908,-0.20415327
11519.53125,0.04175463,-0.22822440
11523.4375,0.03267163,-0.25457424
11527.34375,0.03558758,-0.28370160
11531.25,0.01905327,-0.31466460
11535.15625,0.01599772,-0.34438172
11539.0625,0.02373966,-0.36893457
11542.96875,0.00171109,-0.38476944
11546.875,0.00946802,-0.39080343
11550.78125,0.01329566,-0.39127064
11554.6875,0.00996946,-0.39442867
11558.59375,0.00722740,-0.40662712
11562.5,0.00314108,-0.42822978
11566.40625,-0.00909585,-0.45518675
11570.3125,0.00497620,-0.48234120
11574.21875,-0.01380146,-0.50324875
11578.125,-0.01356671,-0.50907540
11582.03125,-0.01167922,-0.49325117
11585.9375,-0.00309820,-0.45991403
11589.84375,0.00936302,-0.42598051
11593.75,0.00567507,-0.41197932
11597.65625,0.00500563,-0.42837211
11601.5625,-0.00195456,-0.46799216
11605.46875,-0.00819325,-0.50932336
11609.375,-0.02006397,-0.52852553
11613.28125,-0.01597088,-0.51435411
11617.1875,-0.00625346,-0.47666553
11621.09375,0.01406237,-0.43996486
11625.0,0.00261937,-0.42486688
11628.90625,0.00297863,-0.43275279
11632.8125,0.00917508,-0.44573623
11636.71875,-0.00921123,-0.44060239
11640.625,0.00469033,-0.40672553
11644.53125,0.02563909,-0.35405082
11648.4375,0.03958102,-0.30230808
11652.34375,0.02890569,-0.26179782
11656.25,0.05205700,-0.22618850
11660.15625,0.03231801,-0.18277912
11664.0625,0.07029141,-0.12679373
11667.96875,0.08996618,-0.06432239
11671.875,0.07777677,-0.00435078
11675.78125,0.07841291,0.04522935
11679.6875,0.12140697,0.07406142
11683.59375,0.09105648,0.07143521
11687.5,0.10579703,0.03606471
11691.40625,0.07780802,-0.02014194
11695.3125,0.06568484,-0.08060484
11699.21875,0.05426478,-0.13659690
11703.125,0.07605921,-0.19000246
11707.03125,0.03503585,-0.24310642
11710.9375,0.02163878,-0.29126021
11714.84375,0.02916672,-0.32996696
11718.75,0.02344767,-0.36327469
11722.65625,0.01728004,-0.39914033
11726.5625,-0.00078522,-0.43936828
11730.46875,-0.00099610,-0.47717530
11734.375,0.00502148,-0.50195825
11738.28125,-0.02225179,-0.50570762
11742.1875,-0.00044425,-0.48948658
11746.09375,0.00378491,-0.46537125
11750.0,0.01168212,-0.44839621
11753.90625,-0.00021155,-0.44502652
11757.8125,0.00764474,-0.45016736
11761.71875,-0.00296649,-0.45403430
11765.625,0.01116704,-0.45145631
11769.53125,-0.00535272,-0.44723526
11773.4375,0.01796283,-0.45356166
11777.34375,-0.00053619,-0.47970304
11781.25,-0.01635795,-0.52365804
11785.15625,-0.01222758,-0.57641184
11789.0625,-0.04497015,-0.63379675
11792.96875,-0.02504416,-0.69910252
11796.875,-0.06139824,-0.76809549
11800.78125,-0.05508687,-0.80583096
11804.6875,-0.03103624,-0.73304862
11808.59375,-0.00039929,-0.43774393
11812.5,0.11718733,0.17987458
11816.40625,0.29387122,1.14118099
11820.3125,0.52246445,2.34006095
11824.21875,0.77231419,3.55012751
11828.125,0.94472414,4.49398136
11832.03125,1.02561927,4.94059896
11835.9375,1.01335800,4.78383398
11839.84375,0.84427744,4.07144642
11843.75,0.66330153,2.97798562
11847.65625,0.39231738,1.73655927
11851.5625,0.21810503,0.56219292
11855.46875,-0.00281202,-0.40030926
11859.375,-0.10179535,-1.09086251
11863.28125,-0.20260684,-1.51746607
11867.1875,-0.20284367,-1.72272825
11871.09375,-0.25678939,-1.75368309
11875.0,-0.22830586,-1.65367568
11878.90625,-0.17038678,-1.47076404
11882.8125,-0.14420433,-1.25762093
11886.71875,-0.10607594,-1.05691934
11890.625,-0.07593411,-0.89023143
11894.53125,-0.04479508,-0.76036495
11898.4375,-0.03595559,-0.66094589
11902.34375,-0.01687096,-0.58590049
11906.25,-0.00827291,-0.53404117
11910.15625,0.00504257,-0.50593072
11914.0625,-0.00046554,-0.49670166
11917.96875,0.01017370,-0.49347317
11921.875,-0.01669268,-0.48226371
11925.78125,0.01917351,-0.45922893
11929.6875,0.00892862,-0.43429014
11933.59375,0.02446776,-0.42206827
11937.5,0.01275169,-0.42896560
11941.40625,0.00697074,-0.44807225
11945.3125,0.01199196,-0.46449381
11949.21875,-0.00111413,-0.46592629
11953.125,0.01280202,-0.45117313
11957.03125,0.02093370,-0.42960760
11960.9375,0.02392834,-0.41082644
11964.84375,0.00675905,-0.39518684
11968.75,0.03687366,-0.37533453
11972.65625,0.02407086,-0.34472185
11976.5625,0.03922962,-0.30361146
11980.46875,0.05830985,-0.25860915
11984.375,0.04652074,-0.21714182
11988.28125,0.06102237,-0.18302915
11992.1875,0.06539892,-0.15691154
11996.09375,0.08594530,-0.13576588
12000.0,0.07502318,-0.10831109
12003.90625,0.08020361,-0.05646395
12007.8125,0.08443411,0.02977091
12011.71875,0.14643010,0.13805084
12015.625,0.13986634,0.23996255
12019.53125,0.16290385,0.31303963
12023.4375,0.15099797,0.35520437
12027.34375,0.18110226,0.38195989
12031.25,0.17446543,0.41500029
12035.15625,0.17673574,0.46993428
12039.0625,0.21390982,0.54712260
12042.96875,0.21171020,0.63198286
12046.875,0.22936191,0.70479536
12050.78125,0.24163444,0.75158590
12054.6875,0.25329918,0.77187967
12058.59375,0.25234470,0.78205693
12062.5,0.23486313,0.80740601
12066.40625,0.25487429,0.86182350
12070.3125,0.28125271,0.93289340
12074.21875,0.30187082,0.99072242
12078.125,0.28077343,1.01255584
12082.03125,0.29904857,0.99799442
12085.9375,0.25385761,0.96357697
12089.84375,0.29873952,0.92751276
12093.75,0.26433054,0.89978111
12097.65625,0.26155889,0.88060743
12101.5625,0.26461524,0.86251915
12105.46875,0.26507583,0.83597559
12109.375,0.23935512,0.79705691
12113.28125,0.25691509,0.74886870
12117.1875,0.21803296,0.69518042
12121.09375,0.22662367,0.63485241
12125.0,0.20344760,0.56382954
12128.90625,0.20522428,0.48326838
12132.8125,0.16674857,0.40413052
12136.71875,0.16732320,0.33988634
12140.625,0.15214980,0.29402614
12144.53125,0.16618711,0.25719085
12148.4375,0.11670718,0.21522316
12152.34375,0.15294687,0.15751046
12156.25,0.11497732,0.08266475
12160.15625,0.11281769,0.00275462
12164.0625,0.06987831,-0.06168441
12167.96875,0.08134733,-0.09848759
12171.875,0.09201530,-0.11545323
12175.78125,0.09163498,-0.13140456
12179.6875,0.05403270,-0.15843099
12183.59375,0.07243946,-0.19646922
12187.5,0.05449109,-0.23983349
12191.40625,0.05424660,-0.28257963
12195.3125,0.03872981,-0.31974483
12199.21875,0.05475520,-0.34750071
12203.125,0.01190763,-0.36381707
12207.03125,0.03642324,-0.37145561
12210.9375,0.04393886,-0.37908769
12214.84375,0.03190831,-0.39440978
12218.75,0.01681267,-0.41655445
12222.65625,0.02438183,-0.43807909
12226.5625,0.01953632,-0.45208979
12230.46875,0.01159871,-0.45657119
12234.375,0.02648486,-0.45527440
12238.28125,0.02872334,-0.45473486
12242.1875,-0.00457051,-0.45903951
12246.09375,0.03337119,-0.46811479
12250.0,0.01114702,-0.47948027
12253.90625,0.00806347,-0.49004951
12257.8125,0.02093590,-0.49826717
12261.71875,0.00043714,-0.50495261
12265.625,0.01521192,-0.51091170
12269.53125,0.00575866,-0.51471871
12273.4375,0.00954122,-0.51356059
12277.34375,0.01511048,-0.50534433
12281.25,0.01151605,-0.48991460
12285.15625,0.00851758,-0.47015473
12289.0625,0.02861762,-0.45254946
12292.96875,0.02337488,-0.44334456
12296.875,0.02559063,-0.44101846
12300.78125,0.03423330,-0.43343908
12304.6875,0.00357218,-0.40633962
12308.59375,0.04566514,-0.35769260
12312.5,0.06962454,-0.30172214
12316.40625,0.03770185,-0.25620985
12320.3125,0.08929354,-0.22752656
12324.21875,0.04704753,-0.20752610
12328.125,0.06969652,-0.18212496
12332.03125,0.09530256,-0.14289694
12335.9375,0.08827297,-0.09168938
12339.84375,0.09158032,-0.03794828
12343.75,0.10904570,0.00448162
12347.65625,0.11519870,0.02231289
12351.5625,0.12079182,0.01231749
12355.46875,0.10496742,-0.01355757
12359.375,0.07956779,-0.03803805
12363.28125,0.10451443,-0.05639512
12367.1875,0.10540425,-0.08135554
12371.09375,0.07552464,-0.12847738
12375.0,0.08120547,-0.19956876
12378.90625,0.04610453,-0.28014833
12382.8125,0.04490632,-0.34954008
12386.71875,0.03118520,-0.39375237
12390.625,0.03937389,-0.41192383
12394.53125,0.01802400,-0.41367316
12398.4375,0.04689686,-0.41175017
12402.34375,0.02913450,-0.41483003
12406.25,0.02039302,-0.42483434
12410.15625,0.02613195,-0.44082370
12414.0625,0.03119067,-0.46274406
12417.96875,0.01935549,-0.48876771
12421.875,0.00386964,-0.51241279
12425.78125,0.01445900,-0.52624035
12429.6875,0.00787902,-0.52738923
12433.59375,0.01940638,-0.51892871
12437.5,0.00815667,-0.50844097
12441.40625,0.01333973,-0.50559777
12445.3125,0.02411711,-0.51728362
12449.21875,-0.00076305,-0.54349738
12453.125,0.00085456,-0.58144349
12457.03125,-0.01178971,-0.63435948
12460.9375,-0.03345426,-0.70912349
12464.84375,-0.01322964,-0.79381490
12468.75,-0.03588286,-0.82874876
12472.65625,-0.03285161,-0.70258558
12476.5625,0.04321922,-0.29441440
12480.46875,0.19355929,0.45829615
12484.375,0.40111721,1.51126838
12488.28125,0.61380303,2.71056628
12492.1875,0.84394991,3.82978964
12496.09375,0.97068292,4.62938261
12500.0,1.05274689,4.92173576
12503.90625,1.00289953,4.62842178
12507.8125,0.82726955,3.81106496
12511.71875,0.59571195,2.65360236
12515.625,0.38168451,1.39580011
12519.53125,0.14624365,0.25230983
12523.4375,-0.01053504,-0.64310348
12527.34375,-0.11480422,-1.25051284
12531.25,-0.20179915,-1.59945738
12535.15625,-0.18876468,-1.74759424
12539.0625,-0.22155485,-1.74659181
12542.96875,-0.21973684,-1.63297057
12546.875,-0.14525709,-1.44123518
12550.78125,-0.11233547,-1.21413851
12554.6875,-0.07760204,-0.99463034
12558.59375,-0.03846518,-0.81215489
12562.5,-0.01229733,-0.67766833
12566.40625,-0.00480135,-0.58775073
12570.3125,0.01491275,-0.53355372
12574.21875,0.01722091,-0.50745934
12578.125,0.02724193,-0.50123775
12582.03125,0.01188895,-0.50183773
12585.9375,0.01433020,-0.49629518
12589.84375,0.02754521,-0.48212358
12593.75,0.02948706,-0.46781239
12597.65625,0.02197726,-0.46186844
12601.5625,0.02478915,-0.46489373
12605.46875,0.03668043,-0.47094107
12609.375,0.01687513,-0.47195378
12613.28125,0.01483832,-0.46292308
12617.1875,0.04127417,-0.44672662
12621.09375,0.03922962,-0.43139040
12625.0,0.02941110,-0.42018285
12628.90625,0.03813389,-0.40708205
12632.8125,0.03664024,-0.38352588
12636.71875,0.04419100,-0.34841415
12640.625,0.07157919,-0.30978027
12644.53125,0.06213841,-0.27527088
12648.4375,0.05462017,-0.24345538
12652.34375,0.08130497,-0.20754878
12656.25,0.08901304,-0.16392820
12660.15625,0.09024336,-0.11348111
12664.0625,0.09907755,-0.05926488
12667.96875,0.11547823,-0.00645351
12671.875,0.12875544,0.03993416
12675.78125,0.12895478,0.08163404
12679.6875,0.13442457,0.12924442
12683.59375,0.14993864,0.19417030
12687.5,0.17621395,0.27893060
12691.40625,0.18572864,0.37577498
12695.3125,0.18349808,0.47051409
12699.21875,0.23473206,0.54664773
12703.125,0.24272811,0.59427398
12707.03125,0.21165088,0.62074059
12710.9375,0.24791524,0.64801973
12714.84375,0.23433466,0.69527334
12718.75,0.25687256,0.76242155
12722.65625,0.28422704,0.82858360
12726.5625,0.28316885,0.86819643
12730.46875,0.26679918,0.87244624
12734.375,0.29342449,0.85686904
12738.28125,0.26261416,0.84961170
12742.1875,0.27653810,0.87063426
12746.09375,0.29814830,0.91746360
12750.0,0.28856993,0.96854663
12753.90625,0.31674698,0.99990308
12757.8125,0.29736152,1.00038171
12761.71875,0.30766231,0.97614813
12765.625,0.28899670,0.94361758
12769.53125,0.28362793,0.91527873
12773.4375,0.27651787,0.88840395
12777.34375,0.28983676,0.84868252
12781.25,0.27650490,0.78824866
12785.15625,0.23371138,0.71714485
12789.0625,0.23337623,0.65194982
12792.96875,0.24554221,0.59694451
12796.875,0.19564813,0.54140252
12800.78125,0.22392561,0.47154844
12804.6875,0.19747302,0.38423201
12808.59375,0.16560303,0.29394549
12812.5,0.13928467,0.22370099
12816.40625,0.15497796,0.18308945
12820.3125,0.16379741,0.15816729
12824.21875,0.13470878,0.12578718
12828.125,0.12802589,0.07355390
12832.03125,0.11721823,0.00480678
12835.9375,0.09899724,-0.06951878
12839.84375,0.09788039,-0.13972768
12843.75,0.07736783,-0.20010538
12847.65625,0.07043713,-0.24745409
12851.5625,0.05927287,-0.28117302
12855.46875,0.05952928,-0.30585313
12859.375,0.05378133,-0.33097512
12863.28125,0.05535235,-0.36428538
12867.1875,0.04434971,-0.40368763
12871.09375,0.02450721,-0.43712288
12875.0,0.02751036,-0.45318142
12878.90625,0.03438454,-0.45218372
12882.8125,0.04118042,-0.44578800
12886.71875,0.02895625,-0.44655004
12890.625,0.03505125,-0.45867082
12894.53125,0.01012751,-0.47716266
12898.4375,0.04135529,-0.49343961
12902.34375,0.02027450,-0.50112122
12906.25,0.01506887,-0.49949071
12910.15625,0.02431313,-0.49469006
12914.0625,0.02852187,-0.49578306
12917.96875,0.01980501,-0.50630736
12921.875,0.02996680,-0.51988006
12925.78125,0.00050071,-0.52555984
12929.6875,0.02025980,-0.51817906
12933.59375,0.03168938,-0.50264186
12937.5,0.02716139,-0.48740295
12941.40625,0.01824504,-0.47688925
12945.3125,0.02604567,-0.47231048
12949.21875,0.04404040,-0.47438604
12953.125,0.01065519,-0.48082885
12957.03125,0.02914542,-0.48466578
12960.9375,0.02999190,-0.47724825
12964.84375,0.04014774,-0.45111397
12968.75,0.02231686,-0.40359291
12972.65625,0.06051519,-0.34326902
12976.5625,0.05812236,-0.28962213
12980.46875,0.08291543,-0.25942728
12984.375,0.06441561,-0.25270352
12988.28125,0.06528518,-0.25423846
12992.1875,0.06037027,-0.24804702
12996.09375,0.08562474,-0.22758645
13000.0,0.08485587,-0.19271345
13003.90625,0.08365855,-0.14290336
13007.8125,0.10353015,-0.07817957
13011.71875,0.11492120,-0.00515277
13015.625,0.11790667,0.05992759
13019.53125,0.15035628,0.09499238
13023.4375,0.13509801,0.08391599
13027.34375,0.11361894,0.02927206
13031.25,0.11297815,-0.04718583
13035.15625,0.09151816,-0.11826328
13039.0625,0.08194552,-0.16759218
13042.96875,0.08343379,-0.19751894
13046.875,0.06679893,-0.22502403
13050.78125,0.07856427,-0.26821455
13054.6875,0.06041386,-0.33090541
13058.59375,0.03200210,-0.39746109
13062.5,0.02064815,-0.44626629
13066.40625,0.03561844,-0.46979192
13070.3125,0.04433354,-0.47713536
13074.21875,0.01438511,-0.47822031
13078.125,0.01356866,-0.47442323
13082.03125,0.05194366,-0.46512941
13085.9375,0.02233099,-0.45482358
13089.84375,0.01720356,-0.45265216
13093.75,0.05050625,-0.46783218
13097.65625,0.01675909,-0.50121993
13101.5625,0.00647390,-0.54021561
13105.46875,0.02074392,-0.56665725
13109.375,0.00418442,-0.57043093
13113.28125,-0.00136257,-0.55772740
13117.1875,0.02549337,-0.55223233
13121.09375,-0.00071103,-0.58578593
13125.0,-0.00187466,-0.67670822
13128.90625,-0.03942379,-0.80643946
13132.8125,-0.04477237,-0.90931457
13136.71875,-0.05475391,-0.88374698
13140.625,-0.01151247,-0.62348473
13144.53125,0.11683601,-0.05670674
13148.4375,0.26406527,0.82226527
13152.34375,0.47428900,1.93460310
13156.25,0.69681090,3.11485529
13160.15625,0.89671254,4.13649082
13164.0625,1.02804625,4.77150917
13167.96875,1.04042137,4.86581802
13171.875,0.95386696,4.39439392
13175.78125,0.75942832,3.46719575
13179.6875,0.53143436,2.28328013
13183.59375,0.33091590,1.06053102
13187.5,0.10197185,-0.02286205
13191.40625,-0.05961422,-0.85854107
13195.3125,-0.12646870,-1.41109717
13199.21875,-0.21292923,-1.70050991
13203.125,-0.23153043,-1.77832401
13207.03125,-0.18773846,-1.70906651
13210.9375,-0.17508319,-1.55309916
13214.84375,-0.15309985,-1.35335469
13218.75,-0.09818129,-1.13776910
13222.65625,-0.04487247,-0.93018043
13226.5625,-0.04282135,-0.75343192
13230.46875,-0.00790856,-0.62630516
13234.375,0.03283644,-0.55880660
13238.28125,0.01038245,-0.54332900
13242.1875,-0.00339914,-0.55199498
13246.09375,0.01464239,-0.55241847
13250.0,0.01733200,-0.52912194
13253.90625,0.01548455,-0.48995501
13257.8125,0.04366492,-0.45530158
13261.71875,0.02615641,-0.44118160
13265.625,0.02523343,-0.44914854
13269.53125,0.03279189,-0.46839759
13273.4375,0.02953762,-0.48313853
13277.34375,0.00633498,-0.47934836
13281.25,0.03977182,-0.45192951
13285.15625,0.04072744,-0.40812528
13289.0625,0.04169340,-0.36264744
13292.96875,0.04912480,-0.33035344
13296.875,0.05744131,-0.32085866
13300.78125,0.06494513,-0.33227062
13304.6875,0.03383492,-0.34823671
13308.59375,0.04924761,-0.34735548
13312.5,0.05202354,-0.31948614
13316.40625,0.06527895,-0.27209911
13320.3125,0.08229801,-0.22128850
13324.21875,0.06421486,-0.17856477
13328.125,0.10205938,-0.14472644
13332.03125,0.08486626,-0.11177146
13335.9375,0.10070761,-0.06941242
13339.84375,0.10814144,-0.01280505
13343.75,0.12751336,0.05506017
13347.65625,0.14838018,0.12922871
13351.5625,0.13129817,0.20803082
13355.46875,0.18646912,0.29007024
13359.375,0.16807017,0.37009686
13363.28125,0.21760996,0.44210371
13367.1875,0.18511359,0.50384837
13371.09375,0.22570260,0.55533397
13375.0,0.23361544,0.59747040
13378.90625,0.23497504,0.63722038
13382.8125,0.23098783,0.68861127
13386.71875,0.25222445,0.76027727
13390.625,0.28213587,0.84343827
13394.53125,0.28479597,0.91734517
13398.4375,0.29156724,0.96565044
13402.34375,0.30470958,0.98657745
13406.25,0.29692751,0.99159050
13410.15625,0.29329360,0.99614596
13414.0625,0.30607808,1.00813341
13417.96875,0.30413207,1.02272439
13421.875,0.31104690,1.02801836
13425.78125,0.29760474,1.01450467
13429.6875,0.29521400,0.97947794
13433.59375,0.29473466,0.92696810
13437.5,0.27607980,0.86755574
13441.40625,0.25543010,0.81524312
13445.3125,0.25936922,0.77782458
13449.21875,0.25143096,0.74874371
13453.125,0.25344792,0.71147448
13457.03125,0.23679686,0.65385163
13460.9375,0.21149766,0.57802969
13464.84375,0.20846142,0.49700618
13468.75,0.19006737,0.42332509
13472.65625,0.17558344,0.36121079
13476.5625,0.17917427,0.30681634
13480.46875,0.14490654,0.25348023
13484.375,0.15849228,0.19628032
13488.28125,0.13023549,0.13358214
13492.1875,0.12858044,0.06717687
13496.09375,0.10812519,0.00139071
13500.0,0.09504429,-0.05983524
13503.90625,0.08607971,-0.11577875
13507.8125,0.09503555,-0.16715732
13511.71875,0.05639910,-0.21121407
13515.625,0.07069150,-0.24231945
13519.53125,0.05468673,-0.26007122
13523.4375,0.05007035,-0.27515212
13527.34375,0.07237177,-0.30386791
13531.25,0.03698378,-0.35379818
13535.15625,0.03199381,-0.41443625
13539.0625,0.01822546,-0.46384352
13542.96875,0.01076089,-0.48537830
13546.875,0.02715345,-0.47929102
13550.78125,0.01906737,-0.46062604
13554.6875,0.03318151,-0.44630164
13558.59375,0.02524088,-0.44240698
13562.5,0.01009376,-0.44307509
13566.40625,0.03709687,-0.44069201
13570.3125,0.03135124,-0.43428901
13574.21875,0.01726330,-0.42880771
13578.125,0.02548750,-0.43137813
13582.03125,0.03583896,-0.44705665
13585.9375,0.01934124,-0.47197649
13589.84375,0.00750897,-0.49218202
13593.75,0.01505393,-0.49524730
13597.65625,0.01542774,-0.48346362
13601.5625,0.01650630,-0.47331101
13605.46875,0.02692209,-0.48108357
13609.375,0.01719046,-0.50736851
13613.28125,-0.00596651,-0.53505635
13617.1875,0.00509127,-0.54437882
13621.09375,0.00320434,-0.52980542
13625.0,0.02215301,-0.50128609
13628.90625,0.01729873,-0.47137916
13632.8125,0.02824103,-0.44374338
13636.71875,0.02254588,-0.41335136
13640.625,0.02527224,-0.37627140
13644.53125,0.05284117,-0.33786005
13648.4375,0.05311717,-0.30878586
13652.34375,0.05392474,-0.29202357
13656.25,0.04595841,-0.27630296
13660.15625,0.05982078,-0.24423735
13664.0625,0.07016716,-0.18654105
13667.96875,0.09202904,-0.10959141
13671.875,0.08838993,-0.03282500
13675.78125,0.11813548,0.02072353
13679.6875,0.11749800,0.03736499
13683.59375,0.10755347,0.02212980
13687.5,0.09782922,-0.00580066
13691.40625,0.09820910,-0.02997893
13695.3125,0.10185881,-0.04889694
13699.21875,0.09107418,-0.07221881
13703.125,0.07954280,-0.10838286
13707.03125,0.08676696,-0.15649207
13710.9375,0.05893452,-0.20748219
13714.84375,0.05219403,-0.25271997
