rel_ms,value_mv,normalized
0.0,0.00226864,-0.17408310
3.90625,-0.00615026,-0.26655677
7.8125,-0.00471133,-0.30780184
11.71875,-0.02892947,-0.29382974
15.625,0.02208731,-0.25082159
19.53125,0.01434349,-0.21354941
23.4375,-0.00316893,-0.20090303
27.34375,0.01014444,-0.20987163
31.25,0.00435588,-0.22748052
35.15625,-0.00554197,-0.24350399
39.0625,0.01295722,-0.25480083
42.96875,-0.00237780,-0.26219192
46.875,-0.00247460,-0.26531121
50.78125,-0.00791211,-0.26264420
54.6875,0.00717544,-0.25591245
58.59375,0.00064780,-0.25068054
62.5,0.00850381,-0.25125885
66.40625,-0.00520380,-0.25626409
70.3125,0.00372638,-0.25985581
74.21875,-0.00838092,-0.25730535
78.125,0.01254579,-0.24932069
82.03125,0.00482638,-0.24049281
85.9375,0.00665847,-0.23369855
89.84375,0.00773921,-0.22789672
93.75,-0.00919448,-0.22370507
97.65625,0.01245412,-0.22974274
101.5625,0.02785760,-0.25581208
105.46875,-0.01636305,-0.29540017
109.375,-0.01733370,-0.32290757
113.28125,-0.01451789,-0.31595248
117.1875,0.01375830,-0.27685824
121.09375,0.00532596,-0.22931258
125.0,0.01684192,-0.19851965
128.90625,0.01269126,-0.19542274
132.8125,0.00666909,-0.21395802
136.71875,0.00767066,-0.23934782
140.625,0.00234490,-0.25933021
144.53125,0.01492320,-0.26855665
148.4375,-0.00893543,-0.26591197
152.34375,-0.00032183,-0.25439060
156.25,0.00777487,-0.24427965
160.15625,0.02659560,-0.24746405
164.0625,-0.00407626,-0.26336965
167.96875,-0.00773284,-0.27694106
171.875,-0.00142519,-0.27536300
175.78125,0.01708369,-0.26160899
179.6875,0.00275033,-0.24808878
183.59375,0.02158031,-0.24244094
187.5,-0.01666466,-0.24432418
191.40625,0.01946530,-0.25185022
195.3125,0.01845851,-0.26240283
199.21875,-0.01086700,-0.26727206
203.125,0.00811662,-0.25574249
207.03125,0.02097913,-0.22762798
210.9375,0.00756123,-0.19626175
214.84375,0.01861854,-0.17941025
218.75,0.03523644,-0.18825682
222.65625,0.01014040,-0.21936254
226.5625,0.00360379,-0.25535905
230.46875,-0.00216936,-0.27763617
234.375,0.01497468,-0.27954647
238.28125,0.00495150,-0.26807553
242.1875,0.00528139,-0.25781906
246.09375,0.00627703,-0.26428616
250.0,0.01545210,-0.29413506
253.90625,-0.00502917,-0.33441693
257.8125,-0.01047868,-0.35614759
261.71875,-0.02121404,-0.33808389
265.625,0.02248888,-0.28869373
269.53125,0.00910238,-0.24043804
273.4375,0.02645002,-0.22176576
277.34375,0.00833253,-0.23649499
281.25,-0.00035476,-0.26794082
285.15625,0.01439703,-0.29660746
289.0625,0.00785326,-0.31032211
292.96875,-0.00616780,-0.30377972
296.875,-0.00162857,-0.28008580
300.78125,0.03030302,-0.25361636
304.6875,0.01346298,-0.24154389
308.59375,0.01431617,-0.24881990
312.5,0.00610931,-0.26539758
316.40625,0.00125935,-0.27897337
320.3125,0.02034355,-0.28705716
324.21875,0.00849549,-0.29481444
328.125,0.00074867,-0.30396628
332.03125,0.00835501,-0.30819455
335.9375,-0.00079650,-0.30019376
339.84375,0.01245715,-0.28123918
343.75,0.02383279,-0.26219225
347.65625,0.00035410,-0.25500134
351.5625,0.02763432,-0.26388976
355.46875,0.00258463,-0.28314239
359.375,0.01254090,-0.30127743
363.28125,0.00076679,-0.30925578
367.1875,0.00823968,-0.30761069
371.09375,0.01157801,-0.30567929
375.0,0.00589519,-0.31293225
378.90625,0.00277858,-0.33079597
382.8125,0.00318000,-0.35156134
386.71875,0.00156170,-0.36279261
390.625,-0.00732480,-0.35370851
394.53125,0.00846064,-0.32183343
398.4375,0.01652986,-0.27601174
402.34375,0.02271602,-0.23261116
406.25,0.01967922,-0.20762758
410.15625,0.04150036,-0.20833959
414.0625,0.01593437,-0.22823380
417.96875,0.00673147,-0.25230023
421.875,0.03476313,-0.27066910
425.78125,-0.00017142,-0.28498754
429.6875,0.02409125,-0.30133942
433.59375,0.00101835,-0.32061455
437.5,0.01653502,-0.33643293
441.40625,-0.01209634,-0.34200934
445.3125,0.02022343,-0.33992130
449.21875,0.00283877,-0.34506187
453.125,-0.01563765,-0.37833011
457.03125,0.00279183,-0.45397958
460.9375,-0.02343936,-0.55954677
464.84375,-0.04136198,-0.63641119
468.75,-0.04042615,-0.58361816
472.65625,0.01465892,-0.29344091
476.5625,0.10902116,0.30073729
480.46875,0.26688951,1.18989635
484.375,0.45379737,2.28185105
488.28125,0.63473225,3.42023730
492.1875,0.81306225,4.42017508
496.09375,0.93542707,5.11004686
500.0,0.96968263,5.37022829
503.90625,0.93741727,5.15844059
507.8125,0.82683945,4.51595116
511.71875,0.66836929,3.55698609
515.625,0.48664927,2.44389009
519.53125,0.27795428,1.34781873
523.4375,0.13655509,0.40241027
527.34375,0.00167647,-0.32790825
531.25,-0.05518325,-0.84484988
535.15625,-0.13584647,-1.18348563
539.0625,-0.15832736,-1.37836099
542.96875,-0.18446349,-1.45228660
546.875,-0.17683685,-1.42587757
550.78125,-0.14812393,-1.32784986
554.6875,-0.13218696,-1.19120908
558.59375,-0.09752746,-1.04038870
562.5,-0.09480133,-0.88609499
566.40625,-0.04469206,-0.73399127
570.3125,-0.04361650,-0.59529138
574.21875,0.00353117,-0.48603135
578.125,-0.00892074,-0.41666964
582.03125,0.01591681,-0.38448542
585.9375,-0.00852716,-0.37651739
589.84375,0.01681329,-0.37813371
593.75,0.00309169,-0.37800559
597.65625,0.00911098,-0.36867967
601.5625,0.01592756,-0.34785432
605.46875,0.01220765,-0.32041955
609.375,0.01940381,-0.29742935
613.28125,0.02534357,-0.29091305
617.1875,0.02430485,-0.30646145
621.09375,0.01550330,-0.33834517
625.0,0.00026535,-0.37246847
628.90625,0.00704050,-0.39525163
632.8125,0.01441508,-0.39969572
636.71875,-0.00863092,-0.38560393
640.625,0.02592201,-0.35846564
644.53125,0.01408674,-0.32785735
648.4375,0.01401127,-0.30425426
652.34375,0.02847168,-0.29608768
656.25,0.02516951,-0.30569440
660.15625,0.01986936,-0.32483432
664.0625,0.00526348,-0.33870959
667.96875,0.02106602,-0.33887553
671.875,0.02155592,-0.33027607
675.78125,0.00684470,-0.32513013
679.6875,0.03004126,-0.33232591
683.59375,0.02367507,-0.35003620
687.5,-0.00599681,-0.36539531
691.40625,0.01915972,-0.36511847
695.3125,0.00257697,-0.34980693
699.21875,0.03144557,-0.33544052
703.125,0.02755000,-0.33734593
707.03125,0.00467793,-0.35256901
710.9375,0.00735744,-0.36143938
714.84375,0.01925267,-0.34809807
718.75,0.01521895,-0.31761646
722.65625,0.03644126,-0.29245871
726.5625,0.02708475,-0.29259318
730.46875,0.01485854,-0.31804961
734.375,0.02523176,-0.34968916
738.28125,-0.00602777,-0.36648706
742.1875,0.02213640,-0.36248484
746.09375,0.02887604,-0.34689748
750.0,0.01639662,-0.32940832
753.90625,0.01009152,-0.31192958
757.8125,0.02548100,-0.29646611
761.71875,0.04228035,-0.29126790
765.625,0.02133314,-0.30278000
769.53125,0.00553943,-0.32708770
773.4375,0.03646922,-0.35240021
777.34375,-0.00326698,-0.36572394
781.25,0.02549981,-0.35901937
785.15625,0.01270007,-0.33557466
789.0625,0.03111688,-0.31047499
792.96875,0.01007465,-0.30184922
796.875,0.03653484,-0.31920537
800.78125,0.02470370,-0.35478351
804.6875,0.00091146,-0.38438678
808.59375,-0.00142809,-0.38425073
812.5,0.01918840,-0.35256493
816.40625,0.03934296,-0.31063023
820.3125,0.02627952,-0.28094885
824.21875,0.02661706,-0.26897749
828.125,0.02414904,-0.26688257
832.03125,0.03710873,-0.26716366
835.9375,0.03415146,-0.26667115
839.84375,0.03443896,-0.26136312
843.75,0.02077472,-0.24583097
847.65625,0.04841089,-0.22029160
851.5625,0.05211369,-0.19310836
855.46875,0.02176850,-0.17515133
859.375,0.06666385,-0.17389049
863.28125,0.04943351,-0.18809864
867.1875,0.03672868,-0.20452908
871.09375,0.02173557,-0.20751201
875.0,0.05476887,-0.19556244
878.90625,0.05632560,-0.18041572
882.8125,0.04588266,-0.16789034
886.71875,0.03582156,-0.14812994
890.625,0.07623671,-0.10518906
894.53125,0.06257660,-0.02971578
898.4375,0.07264521,0.07351185
902.34375,0.12321740,0.18321735
906.25,0.12776107,0.27361017
910.15625,0.12947661,0.33710665
914.0625,0.13122061,0.39219734
917.96875,0.16609539,0.46706036
921.875,0.15551727,0.57866830
925.78125,0.21164367,0.72642344
929.6875,0.23137292,0.90196174
933.59375,0.25749689,1.10211945
937.5,0.28820452,1.32840037
941.40625,0.34903821,1.57430041
945.3125,0.37994340,1.81968200
949.21875,0.41678476,2.04066014
953.125,0.46005625,2.22506094
957.03125,0.47316694,2.38148665
960.9375,0.49938297,2.53392601
964.84375,0.52057070,2.70128608
968.75,0.56166738,2.87722826
972.65625,0.59416890,3.03115892
976.5625,0.59770250,3.13141131
980.46875,0.61638463,3.16874743
984.375,0.59824246,3.15999484
988.28125,0.60494733,3.13196778
992.1875,0.59401894,3.10045576
996.09375,0.57548755,3.05871677
1000.0,0.59492606,2.98305297
1003.90625,0.56022817,2.85350204
1007.8125,0.51394022,2.67231822
1011.71875,0.48317096,2.46083713
1015.625,0.45772761,2.24037170
1019.53125,0.40453604,2.01945114
1023.4375,0.38850391,1.79563951
1027.34375,0.32782301,1.56380951
1031.25,0.29827076,1.32186115
1035.15625,0.24968024,1.07133937
1039.0625,0.21597041,0.81698638
1042.96875,0.16654122,0.56821108
1046.875,0.12596154,0.33848932
1050.78125,0.09753581,0.13935047
1054.6875,0.06761332,-0.02635788
1058.59375,0.04153629,-0.16589500
1062.5,0.01809881,-0.29263258
1066.40625,0.01084983,-0.41874251
1070.3125,-0.01931458,-0.54708397
1074.21875,-0.05050196,-0.66878891
1078.125,-0.05401365,-0.77073342
1082.03125,-0.08319305,-0.84626609
1085.9375,-0.06683252,-0.89877075
1089.84375,-0.08418027,-0.93625951
1093.75,-0.11109428,-0.96553087
1097.65625,-0.08754544,-0.99160403
1101.5625,-0.08660085,-1.01613581
1105.46875,-0.12667473,-1.03376746
1109.375,-0.10002151,-1.03645837
1113.28125,-0.09213858,-1.02126384
1117.1875,-0.10407218,-0.98783201
1121.09375,-0.08752401,-0.93269938
1125.0,-0.07941833,-0.85394698
1128.90625,-0.05500454,-0.76001787
1132.8125,-0.05044211,-0.66956127
1136.71875,-0.01554743,-0.60113156
1140.625,-0.04498666,-0.56263453
1144.53125,-0.01989080,-0.55054802
1148.4375,-0.02661408,-0.55624461
1152.34375,-0.01855172,-0.56789917
1156.25,-0.03040906,-0.56794828
1160.15625,-0.03458240,-0.53848255
1164.0625,-0.01648794,-0.47646958
1167.96875,0.00576762,-0.40168947
1171.875,0.01906955,-0.34324136
1175.78125,0.01035199,-0.31548321
1179.6875,0.01171418,-0.30876255
1183.59375,-0.00206530,-0.30457082
1187.5,0.02834463,-0.29668295
1191.40625,0.02769431,-0.29296678
1195.3125,0.00657018,-0.29830146
1199.21875,0.01352362,-0.30406767
1203.125,0.00306616,-0.29777873
1207.03125,0.03339089,-0.27775547
1210.9375,0.02127878,-0.25463665
1214.84375,0.01575525,-0.24217600
1218.75,0.02216794,-0.24974865
1222.65625,0.02287504,-0.27849868
1226.5625,0.01288061,-0.31777096
1230.46875,0.00309238,-0.34673446
1234.375,0.00271141,-0.34640539
1238.28125,-0.00265705,-0.31526253
1242.1875,0.02379481,-0.27334338
1246.09375,0.04491438,-0.24649030
1250.0,-0.00208408,-0.24478267
1253.90625,0.01996195,-0.25942573
1257.8125,0.02322020,-0.27676362
1261.71875,0.00644952,-0.28723216
1265.625,0.02068756,-0.28501713
1269.53125,0.00503500,-0.26979923
1273.4375,0.03256247,-0.24993645
1277.34375,0.01098261,-0.23874767
1281.25,0.01927354,-0.24522623
1285.15625,0.02622875,-0.26665926
1289.0625,0.01280928,-0.28825435
1292.96875,-0.00357988,-0.29345971
1296.875,0.01148636,-0.27992243
1300.78125,0.02696282,-0.26251775
1304.6875,0.01673697,-0.25606480
1308.59375,0.02045244,-0.25842422
1312.5,0.00467295,-0.25492674
1316.40625,0.01929848,-0.23692986
1320.3125,0.02625911,-0.21234934
1324.21875,0.01789908,-0.19927037
1328.125,0.04029779,-0.21082684
1332.03125,0.01484732,-0.24282439
1335.9375,0.00478320,-0.27392280
1339.84375,-0.00219461,-0.28158993
1343.75,0.03097862,-0.25976256
1347.65625,0.01638293,-0.22022098
1351.5625,0.02916656,-0.18098259
1355.46875,0.02245443,-0.15721482
1359.375,0.03639808,-0.15731154
1363.28125,0.03202439,-0.17857547
1367.1875,0.01223384,-0.20650969
1371.09375,0.01998387,-0.22391838
1375.0,0.02965386,-0.22217643
1378.90625,0.00172800,-0.20432539
1382.8125,0.03390254,-0.18209732
1386.71875,0.03096597,-0.17030405
1390.625,0.02814681,-0.17816193
1394.53125,0.01386954,-0.20348755
1398.4375,0.01983484,-0.23527558
1402.34375,0.00273008,-0.26043767
1406.25,0.01675960,-0.26956090
1410.15625,0.00894219,-0.26055697
1414.0625,0.01695551,-0.23916951
1417.96875,0.00990662,-0.21636480
1421.875,0.01917257,-0.20426168
1425.78125,0.02984312,-0.21118820
1429.6875,-0.00010049,-0.23705763
1433.59375,0.02664246,-0.27170324
1437.5,-0.00844154,-0.29794875
1441.40625,-0.01055033,-0.30146793
1445.3125,0.01387092,-0.28335771
1449.21875,0.01530480,-0.25995547
1453.125,0.02045779,-0.24529631
1457.03125,-0.00470489,-0.23736574
1460.9375,0.01426346,-0.22577912
1464.84375,0.01641945,-0.20850416
1468.75,0.02988148,-0.19519532
1472.65625,0.01349026,-0.19575498
1476.5625,0.02100099,-0.21013933
1480.46875,0.00284018,-0.22930834
1484.375,0.01223429,-0.24363233
1488.28125,0.00905363,-0.24935785
1492.1875,0.02275427,-0.24693625
1496.09375,0.00236281,-0.23547423
1500.0,0.00413027,-0.21404229
1503.90625,0.02096695,-0.18915024
1507.8125,0.03544077,-0.17377199
1511.71875,0.01847187,-0.17419395
1515.625,0.01743354,-0.18167852
1519.53125,0.00954796,-0.18131027
1523.4375,0.02667312,-0.16829719
1527.34375,0.02000086,-0.15453005
1531.25,0.03422949,-0.15913229
1535.15625,0.01730854,-0.19067338
1539.0625,0.00186419,-0.23676008
1542.96875,0.00631684,-0.27157786
1546.875,0.00121460,-0.27519423
1550.78125,-0.00203956,-0.24837594
1554.6875,0.02804124,-0.21090849
1558.59375,0.02247053,-0.18439786
1562.5,-0.00217587,-0.17673975
1566.40625,0.03396861,-0.18322037
1570.3125,0.01543192,-0.19625475
1574.21875,0.00091844,-0.21095943
1578.125,0.01693930,-0.22690898
1582.03125,0.01137733,-0.24564280
1585.9375,0.00283836,-0.26400054
1589.84375,-0.01130288,-0.27430752
1593.75,0.01235463,-0.27319717
1597.65625,0.01531914,-0.26372236
1601.5625,-0.01923297,-0.24868888
1605.46875,0.01827517,-0.23032409
1609.375,0.01892776,-0.21544121
1613.28125,0.00577807,-0.21224721
1617.1875,0.01266011,-0.22139212
1621.09375,0.00784533,-0.23373599
1625.0,0.00106617,-0.23784770
1628.90625,0.00668850,-0.23062268
1632.8125,0.02712575,-0.21964411
1636.71875,-0.00660398,-0.21424109
1640.625,0.01354626,-0.21809578
1644.53125,0.01280549,-0.23097110
1648.4375,0.00200023,-0.25074297
1652.34375,0.00510305,-0.27087918
1656.25,-0.00652291,-0.28037414
1660.15625,-0.00004694,-0.27030334
1664.0625,0.01025019,-0.24110794
1667.96875,0.01388514,-0.20344429
1671.875,-0.00092256,-0.17354290
1675.78125,0.04642711,-0.16581897
1679.6875,0.00279954,-0.18255915
1683.59375,0.01106394,-0.20888746
1687.5,0.00666097,-0.22343801
1691.40625,0.00452217,-0.21643864
1695.3125,0.02482360,-0.19644634
1699.21875,0.00335594,-0.18061231
1703.125,0.02500489,-0.17932694
1707.03125,0.02258424,-0.18805553
1710.9375,-0.00377566,-0.19271021
1714.84375,0.02108780,-0.18543500
1718.75,0.00074656,-0.17591663
1722.65625,0.04127751,-0.18381272
1726.5625,0.00369863,-0.21823537
1730.46875,-0.00307425,-0.26691487
1734.375,-0.01482809,-0.30706671
1738.28125,-0.00752406,-0.32443905
1742.1875,0.00091205,-0.32006285
1746.09375,-0.00420943,-0.30219415
1750.0,-0.00709057,-0.27738935
1753.90625,-0.00080393,-0.25113335
1757.8125,0.00494777,-0.23284620
1761.71875,0.02470443,-0.23333158
1765.625,-0.01324164,-0.25485104
1769.53125,0.00046358,-0.28696042
1773.4375,-0.00447835,-0.31336424
1777.34375,-0.01132856,-0.32124832
1781.25,-0.00845584,-0.30699444
1785.15625,-0.00424669,-0.27795419
1789.0625,0.01511073,-0.24804910
1792.96875,0.00406323,-0.22833335
1796.875,-0.00018219,-0.22120944
1800.78125,0.01349249,-0.22268328
1804.6875,0.00940935,-0.22702388
1808.59375,0.00324307,-0.22979771
1812.5,0.01041712,-0.23043202
1816.40625,-0.00425206,-0.23258469
1820.3125,0.01309897,-0.23974223
1824.21875,0.01105553,-0.24894392
1828.125,0.00038660,-0.24974628
1832.03125,-0.00941783,-0.23297763
1835.9375,0.02333809,-0.20229009
1839.84375,0.00610896,-0.17459817
1843.75,0.04147478,-0.16686612
1847.65625,-0.00310044,-0.18207596
1851.5625,0.01485528,-0.20805311
1855.46875,-0.00070895,-0.22977430
1859.375,0.00742604,-0.24196701
1863.28125,0.01426290,-0.24906273
1867.1875,-0.00544947,-0.25469860
1871.09375,0.00282101,-0.25524133
1875.0,0.00583311,-0.24483424
1878.90625,0.00514313,-0.22396107
1882.8125,0.01081821,-0.20188743
1886.71875,0.01584684,-0.19209592
1890.625,0.01342278,-0.20433974
1894.53125,0.00645441,-0.23739059
1898.4375,-0.00099131,-0.27694371
1902.34375,-0.01050026,-0.30266967
1906.25,-0.00589137,-0.30301937
1910.15625,-0.00352942,-0.28580573
1914.0625,0.01088416,-0.27089947
1917.96875,-0.00179354,-0.27023217
1921.875,-0.01246097,-0.27859610
1925.78125,0.00983659,-0.28508648
1929.6875,-0.00746223,-0.28708023
1933.59375,-0.00722019,-0.29038501
1937.5,-0.00115710,-0.30092752
1941.40625,0.00625825,-0.31890464
1945.3125,-0.03068675,-0.34099272
1949.21875,-0.02009635,-0.37004346
1953.125,-0.01351056,-0.41878942
1957.03125,-0.03352638,-0.49481884
1960.9375,-0.05502005,-0.57850957
1964.84375,-0.06064521,-0.61513364
1968.75,-0.02730760,-0.52395004
1972.65625,-0.00295256,-0.21804327
1976.5625,0.10666440,0.36542922
1980.46875,0.25460646,1.23171723
1984.375,0.42551783,2.30892372
1988.28125,0.63455528,3.45222020
1992.1875,0.80052972,4.47149992
1996.09375,0.92055446,5.17773581
2000.0,0.95822036,5.43478251
2003.90625,0.94066429,5.19805479
2007.8125,0.80861038,4.52593756
2011.71875,0.63868397,3.55714011
2015.625,0.44229963,2.46084571
2019.53125,0.29417777,1.38591278
2023.4375,0.12345582,0.43597037
2027.34375,-0.01017880,-0.32882279
2031.25,-0.10422270,-0.88243300
2035.15625,-0.16962445,-1.22785318
2039.0625,-0.17706026,-1.39295983
2042.96875,-0.18618110,-1.42133820
2046.875,-0.20062485,-1.36026740
2050.78125,-0.15342337,-1.25150585
2054.6875,-0.13528612,-1.12435544
2058.59375,-0.13053206,-0.99219507
2062.5,-0.10014835,-0.85899746
2066.40625,-0.07538417,-0.73026043
2070.3125,-0.04871377,-0.61384451
2074.21875,-0.03690225,-0.51255566
2078.125,-0.04334154,-0.42363089
2082.03125,0.00202670,-0.34702456
2085.9375,-0.00659998,-0.28917608
2089.84375,0.00799131,-0.25692961
2093.75,0.00980715,-0.24971931
2097.65625,-0.00673406,-0.25752884
2101.5625,0.00034964,-0.26703250
2105.46875,0.00527354,-0.27202702
2109.375,0.00569717,-0.27708444
2113.28125,-0.00555745,-0.28962752
2117.1875,-0.01109935,-0.31047884
2121.09375,-0.00336576,-0.33369011
2125.0,-0.01352319,-0.35324341
2128.90625,-0.01069431,-0.36705908
2132.8125,-0.02850472,-0.37479705
2136.71875,-0.00325860,-0.37388337
2140.625,-0.01670475,-0.35932732
2144.53125,-0.01117176,-0.32929215
2148.4375,-0.00525356,-0.29214978
2152.34375,-0.00097444,-0.26586989
2156.25,0.01781047,-0.26572239
2160.15625,-0.00252578,-0.28990856
2164.0625,-0.02205647,-0.31947529
2167.96875,-0.00364689,-0.33542776
2171.875,-0.01248291,-0.33503515
2175.78125,-0.00065972,-0.33058453
2179.6875,-0.01379661,-0.33515829
2183.59375,-0.01418886,-0.35143980
2187.5,-0.01194060,-0.37154922
2191.40625,-0.01345339,-0.38360903
2195.3125,-0.02793693,-0.37876198
2199.21875,-0.01417544,-0.35689610
2203.125,-0.00644059,-0.32825366
2207.03125,0.00801752,-0.30656794
2210.9375,-0.01002192,-0.29768884
2214.84375,-0.01107958,-0.29553688
2218.75,0.00022516,-0.28999728
2222.65625,-0.00037347,-0.27749628
2226.5625,0.01223563,-0.26292557
2230.46875,-0.00004839,-0.25270066
2234.375,-0.00741249,-0.24949053
2238.28125,0.00877369,-0.25508824
2242.1875,0.01096318,-0.27340290
2246.09375,-0.01319581,-0.30548245
2250.0,-0.00568953,-0.34344518
2253.90625,-0.02784470,-0.37328628
2257.8125,-0.01212849,-0.38460338
2261.71875,-0.01843587,-0.37718093
2265.625,-0.01045884,-0.35860321
2269.53125,-0.01371259,-0.33765221
2273.4375,-0.00994840,-0.32139859
2277.34375,-0.00919002,-0.31556442
2281.25,-0.00199901,-0.32174224
2285.15625,-0.00507895,-0.33195311
2289.0625,-0.01447642,-0.33101124
2292.96875,-0.02303577,-0.31137782
2296.875,0.00748410,-0.28525406
2300.78125,0.00997768,-0.27540603
2304.6875,-0.01209669,-0.29279160
2308.59375,0.00057228,-0.32637006
2312.5,-0.02389845,-0.35274589
2316.40625,-0.02364421,-0.35395947
2320.3125,-0.00733574,-0.33062682
2324.21875,0.01447836,-0.29998589
2328.125,-0.01471222,-0.27966583
2332.03125,-0.01102800,-0.27447537
2335.9375,0.01950438,-0.27668402
2339.84375,-0.02119361,-0.27348095
2343.75,0.01066338,-0.25592348
2347.65625,0.01019322,-0.22535326
2351.5625,0.00333088,-0.19220495
2355.46875,0.00956538,-0.17034899
2359.375,0.04029282,-0.17006546
2363.28125,-0.00310268,-0.18901968
2367.1875,0.00834462,-0.21060809
2371.09375,0.01112981,-0.21622531
2375.0,0.00788343,-0.19914706
2378.90625,0.00268036,-0.16775276
2382.8125,0.04117310,-0.13735299
2386.71875,0.02884952,-0.11534782
2390.625,0.01042536,-0.09369010
2394.53125,0.02986033,-0.05936671
2398.4375,0.05170897,-0.00764089
2402.34375,0.06233036,0.06069271
2406.25,0.05324396,0.14713602
2410.15625,0.08512115,0.25159141
2414.0625,0.10788798,0.36740887
2417.96875,0.13097087,0.49074641
2421.875,0.15547588,0.63207090
2425.78125,0.15622373,0.80881137
2429.6875,0.23027921,1.02466094
2433.59375,0.24297372,1.26052988
2437.5,0.29627848,1.48681080
2441.40625,0.34439588,1.68441200
2445.3125,0.34414223,1.85762835
2449.21875,0.36715624,2.02723050
2453.125,0.42730805,2.20937562
2457.03125,0.44803935,2.40336871
2460.9375,0.47558239,2.59673715
2464.84375,0.49617812,2.77289057
2468.75,0.55253607,2.91542244
2472.65625,0.54623157,3.01594782
2476.5625,0.54910213,3.07991934
2480.46875,0.56962800,3.11951399
2484.375,0.56474322,3.14073181
2488.28125,0.57859558,3.13955402
2492.1875,0.56421179,3.10879469
2496.09375,0.54372430,3.04617572
2500.0,0.54569143,2.95526361
2503.90625,0.50805300,2.83896446
2507.8125,0.49745384,2.69342947
2511.71875,0.47309831,2.51227307
2515.625,0.41959161,2.29917908
2519.53125,0.37952265,2.07087255
2523.4375,0.35102600,1.84255815
2527.34375,0.31933337,1.61533749
2531.25,0.26788750,1.38252068
2535.15625,0.22878692,1.14279342
2539.0625,0.18646081,0.90153742
2542.96875,0.15123148,0.66313732
2546.875,0.11729033,0.42920503
2550.78125,0.06549629,0.20446426
2554.6875,0.03475343,-0.00176045
2558.59375,0.01030061,-0.18244222
2562.5,-0.02608168,-0.33835855
2566.40625,-0.04126848,-0.47569796
2570.3125,-0.05812070,-0.59928048
2574.21875,-0.08328320,-0.70759887
2578.125,-0.10558378,-0.79499674
2582.03125,-0.11992904,-0.86035180
2585.9375,-0.09893450,-0.91063654
2589.84375,-0.11602383,-0.95088053
2593.75,-0.14411095,-0.97418553
2597.65625,-0.14260449,-0.97061414
2601.5625,-0.10986300,-0.94478804
2605.46875,-0.11231890,-0.91603285
2609.375,-0.12556350,-0.90084183
2613.28125,-0.10866478,-0.89995986
2617.1875,-0.13492770,-0.90124685
2621.09375,-0.11090232,-0.89146239
2625.0,-0.09539342,-0.86412126
2628.90625,-0.11969795,-0.81814945
2632.8125,-0.09977444,-0.75606084
2636.71875,-0.07403892,-0.68633425
2640.625,-0.06308711,-0.62117469
2644.53125,-0.07729846,-0.56953800
2648.4375,-0.06056843,-0.53565067
2652.34375,-0.03911552,-0.51996297
2656.25,-0.05763190,-0.51475054
2660.15625,-0.06423975,-0.50382835
2664.0625,-0.04463804,-0.47489634
2667.96875,-0.04474511,-0.43094677
2671.875,-0.02098880,-0.38597554
2675.78125,-0.03167884,-0.35149655
2679.6875,-0.04062034,-0.32966712
2683.59375,0.00005213,-0.31619707
2687.5,-0.03284553,-0.30485365
2691.40625,-0.01956078,-0.29128525
2695.3125,-0.01576397,-0.27729490
2699.21875,-0.01334574,-0.26988018
2703.125,-0.01976128,-0.27441698
2707.03125,-0.01404654,-0.29030403
2710.9375,-0.02129794,-0.31127805
2714.84375,-0.03703301,-0.32767540
2718.75,-0.02226325,-0.33117589
2722.65625,-0.02171447,-0.31968603
2726.5625,-0.02124421,-0.29715893
2730.46875,-0.01731353,-0.27020466
2734.375,-0.02632413,-0.24758342
2738.28125,-0.00286648,-0.24068065
2742.1875,0.00010795,-0.25723252
2746.09375,-0.04506695,-0.29216200
2750.0,-0.01853852,-0.32902083
2753.90625,-0.02717912,-0.35144439
2757.8125,-0.04993894,-0.35243344
2761.71875,-0.01376226,-0.33629036
2765.625,-0.02613520,-0.31239882
2769.53125,-0.02324836,-0.28559056
2773.4375,-0.02659143,-0.25590938
2777.34375,-0.00576344,-0.22752196
2781.25,-0.00397227,-0.21044067
2785.15625,-0.01555945,-0.21144322
2789.0625,-0.01060122,-0.22814465
2792.96875,-0.02030529,-0.25249752
2796.875,-0.01731171,-0.27594334
2800.78125,-0.02793195,-0.29096684
2804.6875,-0.01865304,-0.29172903
2808.59375,-0.02766784,-0.27602795
2812.5,-0.01466315,-0.24698555
2816.40625,-0.00924653,-0.21281838
2820.3125,-0.01547639,-0.18589665
2824.21875,-0.00503307,-0.18052064
2828.125,0.01300730,-0.20429745
2832.03125,-0.04458671,-0.24768725
2835.9375,-0.01917537,-0.28829381
2839.84375,-0.02619464,-0.30900878
2843.75,-0.02488099,-0.30827218
2847.65625,-0.03572819,-0.29523444
2851.5625,-0.01882838,-0.28161705
2855.46875,-0.02258607,-0.27647683
2859.375,-0.02710729,-0.28259850
2863.28125,-0.02259244,-0.29499373
2867.1875,-0.02667927,-0.30305174
2871.09375,-0.04770646,-0.29791084
2875.0,-0.00668680,-0.28142467
2878.90625,-0.02328095,-0.26582226
2882.8125,-0.03105776,-0.26290748
2886.71875,-0.01600726,-0.27526051
2890.625,-0.02765481,-0.29547539
2894.53125,-0.04581413,-0.31076783
2898.4375,-0.00910320,-0.30999872
2902.34375,-0.03988566,-0.28861731
2906.25,-0.02240442,-0.25092551
2910.15625,-0.01835929,-0.21165036
2914.0625,-0.00362203,-0.19071844
2917.96875,-0.00555347,-0.19804491
2921.875,-0.01786061,-0.22203739
2925.78125,-0.02902494,-0.23747736
2929.6875,-0.02486891,-0.22819155
2933.59375,-0.00683887,-0.20178017
2937.5,0.00153370,-0.18081261
2941.40625,-0.01338988,-0.18135293
2945.3125,-0.02766439,-0.20243549
2949.21875,-0.00758394,-0.23204851
2953.125,-0.02444869,-0.25566560
2957.03125,-0.02484865,-0.26076654
2960.9375,-0.02330999,-0.24244286
2964.84375,-0.01288772,-0.20847271
2968.75,-0.01667261,-0.17741054
2972.65625,-0.00806794,-0.17029621
2976.5625,-0.00442973,-0.19868679
2980.46875,-0.01383164,-0.25228798
2984.375,-0.04798114,-0.29902330
2988.28125,-0.04035578,-0.30727431
2992.1875,-0.01809543,-0.27292460
2996.09375,-0.02077611,-0.22182953
3000.0,0.00591035,-0.18509172
3003.90625,-0.02036219,-0.17406452
3007.8125,-0.02182981,-0.17923190
3011.71875,-0.00866995,-0.18855290
3015.625,-0.00722078,-0.20022550
3019.53125,-0.02281551,-0.21787956
3023.4375,-0.01430802,-0.24047296
3027.34375,-0.03358411,-0.26004285
3031.25,-0.03129373,-0.26707813
3035.15625,-0.00517263,-0.25641316
3039.0625,-0.03684799,-0.22958355
3042.96875,-0.00888671,-0.19580799
3046.875,-0.01181115,-0.17105794
3050.78125,-0.01069934,-0.17064396
3054.6875,-0.00897227,-0.19849358
3058.59375,-0.01314899,-0.24216288
3062.5,-0.04560120,-0.27902555
3066.40625,-0.03194385,-0.29202849
3070.3125,-0.02709388,-0.28220719
3074.21875,-0.00888639,-0.26392394
3078.125,-0.03338325,-0.24917804
3082.03125,-0.02829294,-0.24124125
3085.9375,-0.02417180,-0.24104539
3089.84375,-0.00400398,-0.25005689
3093.75,-0.03707616,-0.26459980
3097.65625,-0.03601231,-0.27569839
3101.5625,-0.01222009,-0.27826124
3105.46875,-0.04523250,-0.27615100
3109.375,-0.01572182,-0.27727753
3113.28125,-0.02513269,-0.28487659
3117.1875,-0.03858553,-0.29224294
3121.09375,-0.02468253,-0.28706634
3125.0,-0.03164135,-0.26317582
3128.90625,-0.01757798,-0.22791772
3132.8125,-0.01520048,-0.19796440
3136.71875,-0.00167302,-0.18727385
3140.625,-0.01966747,-0.19711205
3144.53125,-0.01828014,-0.21684016
3148.4375,-0.02638653,-0.23430599
3152.34375,-0.01971370,-0.24487054
3156.25,-0.00680540,-0.25049481
3160.15625,-0.04247903,-0.25285915
3164.0625,-0.01142998,-0.25037763
3167.96875,-0.02573001,-0.24073869
3171.875,-0.01838884,-0.22466928
3175.78125,-0.01534189,-0.20870586
3179.6875,-0.00900148,-0.20287538
3183.59375,-0.01631323,-0.21156538
3187.5,-0.02384893,-0.22766969
3191.40625,-0.01536249,-0.23868378
3195.3125,-0.01892364,-0.23723072
3199.21875,-0.02148270,-0.22503483
3203.125,-0.01652879,-0.21067236
3207.03125,-0.00846875,-0.20546517
3210.9375,-0.01725216,-0.21777578
3214.84375,-0.01700624,-0.24688992
3218.75,-0.03428101,-0.28121081
3222.65625,-0.02031332,-0.30334607
3226.5625,-0.04104299,-0.29913515
3230.46875,-0.01006354,-0.26523736
3234.375,-0.02993090,-0.21227135
3238.28125,-0.00307076,-0.16254620
3242.1875,0.01735112,-0.13983864
3246.09375,-0.02329300,-0.15389554
3250.0,-0.00252203,-0.19310567
3253.90625,-0.01358709,-0.23261265
3257.8125,-0.02506612,-0.25022578
3261.71875,-0.02842932,-0.24130850
3265.625,-0.01154089,-0.22364934
3269.53125,-0.00149626,-0.22270530
3273.4375,-0.01393889,-0.24622986
3277.34375,-0.03627469,-0.27551699
3281.25,-0.03058690,-0.28432700
3285.15625,-0.02076267,-0.26382115
3289.0625,-0.00168749,-0.22757781
3292.96875,-0.01451834,-0.19746161
3296.875,-0.01393734,-0.18908650
3300.78125,-0.00328293,-0.20598906
3304.6875,-0.02020794,-0.23917881
3308.59375,-0.01876533,-0.27129111
3312.5,-0.01982082,-0.28622404
3316.40625,-0.03891577,-0.27929723
3320.3125,-0.01192126,-0.26094165
3324.21875,-0.01253183,-0.24892564
3328.125,-0.00569643,-0.25183192
3332.03125,-0.03160776,-0.25993797
3335.9375,-0.02706982,-0.25686017
3339.84375,-0.00600370,-0.23999281
3343.75,-0.01327783,-0.22456612
3347.65625,-0.00059085,-0.22671948
3351.5625,-0.02738349,-0.24646457
3355.46875,-0.01455277,-0.26877615
3359.375,-0.02500904,-0.27827060
3363.28125,-0.01311406,-0.27036422
3367.1875,-0.02258503,-0.25148162
3371.09375,-0.01026565,-0.23383665
3375.0,-0.00365303,-0.22880587
3378.90625,-0.00845766,-0.23928413
3382.8125,-0.03819106,-0.25772396
3386.71875,-0.00513721,-0.27431887
3390.625,-0.01098119,-0.28456467
3394.53125,-0.02879697,-0.28798869
3398.4375,-0.02683834,-0.28652564
3402.34375,-0.01603727,-0.28607115
3406.25,-0.00918180,-0.29190347
3410.15625,-0.02139916,-0.29970634
3414.0625,-0.03538691,-0.29719865
3417.96875,-0.01246337,-0.27763727
3421.875,-0.01373034,-0.24732195
3425.78125,0.01359651,-0.21761855
3429.6875,-0.03110513,-0.19489340
3433.59375,0.01463456,-0.18136404
3437.5,0.00507403,-0.17942686
3441.40625,-0.01300266,-0.19094279
3445.3125,0.00115997,-0.21822184
3449.21875,-0.02229787,-0.26886386
3453.125,-0.02049905,-0.35396585
3457.03125,-0.05437426,-0.47534037
3460.9375,-0.05989828,-0.60824871
3464.84375,-0.08232798,-0.68955505
3468.75,-0.07863668,-0.62331992
3472.65625,-0.01633884,-0.31046903
3476.5625,0.07481647,0.30815154
3480.46875,0.23679498,1.21831000
3484.375,0.43119437,2.32558155
3488.28125,0.61243600,3.47483540
3492.1875,0.79207969,4.48331642
3496.09375,0.91578317,5.17784023
3500.0,0.93745458,5.43216038
3503.90625,0.91946137,5.19694424
3507.8125,0.79980242,4.51421118
3511.71875,0.63124251,3.51164293
3515.625,0.42932448,2.37174797
3519.53125,0.23560090,1.27842188
3523.4375,0.09867515,0.36248171
3527.34375,-0.01745435,-0.32444900
3531.25,-0.09224475,-0.79691577
3535.15625,-0.14992882,-1.09999204
3539.0625,-0.17512012,-1.27652931
3542.96875,-0.19701000,-1.35199618
3546.875,-0.18144220,-1.33730137
3550.78125,-0.18121076,-1.24209273
3554.6875,-0.14821708,-1.08879292
3558.59375,-0.11874971,-0.91600353
3562.5,-0.07193562,-0.76352423
3566.40625,-0.07785509,-0.64993399
3570.3125,-0.07620550,-0.56813246
3574.21875,-0.02869739,-0.50342053
3578.125,-0.04302628,-0.44883415
3582.03125,-0.02602829,-0.40281755
3585.9375,-0.02334489,-0.36280856
3589.84375,-0.02723021,-0.32759902
3593.75,0.00178718,-0.30198714
3597.65625,-0.00584577,-0.29239884
3601.5625,-0.01963701,-0.29738337
3605.46875,-0.01105239,-0.30737877
3609.375,-0.01683395,-0.31472999
3613.28125,-0.00408361,-0.31995443
3617.1875,-0.01587764,-0.32744783
3621.09375,-0.02041502,-0.33837500
3625.0,-0.01884597,-0.34907544
3628.90625,-0.01625241,-0.35343358
3632.8125,-0.00743443,-0.34457812
3636.71875,-0.02183004,-0.31834057
3640.625,-0.01177242,-0.28179932
3644.53125,-0.00527311,-0.25758159
3648.4375,0.01755551,-0.26916519
3652.34375,-0.00011217,-0.31430590
3656.25,-0.04608722,-0.35918030
3660.15625,-0.01630950,-0.36835393
3664.0625,-0.01483385,-0.33897042
3667.96875,-0.00611989,-0.30112249
3671.875,0.00897472,-0.28747502
3675.78125,-0.00084602,-0.30392531
3679.6875,-0.03727848,-0.32761380
3683.59375,-0.00585208,-0.33275405
3687.5,-0.00813092,-0.31620908
3691.40625,-0.00436337,-0.29676837
3695.3125,0.00709621,-0.29399091
3699.21875,-0.02219108,-0.31031704
3703.125,0.00424579,-0.33024362
3707.03125,-0.02872712,-0.33447245
3710.9375,-0.00816003,-0.31804064
3714.84375,-0.00409126,-0.29717749
3718.75,0.01886818,-0.29424998
3722.65625,-0.01686107,-0.31329542
3726.5625,-0.02864612,-0.33581275
3730.46875,0.00004219,-0.34270284
3734.375,-0.01602078,-0.33346382
3738.28125,0.01079943,-0.32114252
3742.1875,-0.01634078,-0.31497291
3746.09375,-0.01824527,-0.31340900
3750.0,0.00734677,-0.31136110
3753.90625,-0.00642509,-0.30723378
3757.8125,0.00470394,-0.30212182
3761.71875,-0.02431321,-0.29853183
3765.625,0.01283002,-0.30187792
3769.53125,-0.01386624,-0.31779075
3773.4375,0.00323772,-0.34423494
3777.34375,-0.01842609,-0.36796716
3781.25,-0.02471559,-0.37230712
3785.15625,-0.00889235,-0.35096020
3789.0625,-0.00337511,-0.31384072
3792.96875,0.01384636,-0.27749270
3796.875,-0.00041496,-0.25090587
3800.78125,0.00450092,-0.23358333
3804.6875,0.00443432,-0.22527385
3808.59375,0.03455368,-0.22962296
3812.5,-0.01178067,-0.24569280
3816.40625,0.01401208,-0.26358646
3820.3125,-0.00181491,-0.27360147
3824.21875,0.00424612,-0.27636880
3828.125,-0.00419092,-0.28133568
3832.03125,0.01767905,-0.29521856
3835.9375,-0.00987164,-0.31184936
3839.84375,-0.00914152,-0.31576458
3843.75,0.00583724,-0.29732528
3847.65625,-0.00391039,-0.26224887
3851.5625,0.02011609,-0.22656998
3855.46875,0.02445902,-0.20421287
3859.375,0.00611389,-0.19778952
3863.28125,0.02636669,-0.19816099
3867.1875,0.01093164,-0.19163136
3871.09375,0.02044358,-0.17054237
3875.0,0.02345034,-0.14114353
3878.90625,0.04873225,-0.11875507
3882.8125,0.02970221,-0.11048342
3886.71875,0.02314037,-0.10628537
3890.625,0.02860763,-0.09165299
3894.53125,0.06101196,-0.06303453
3898.4375,0.03535480,-0.02464033
3902.34375,0.06060565,0.02433882
3906.25,0.07494470,0.09340242
3910.15625,0.06601129,0.19323429
3914.0625,0.10854488,0.32549566
3917.96875,0.14792357,0.48103070
3921.875,0.16336097,0.65034664
3925.78125,0.17736548,0.83176368
3929.6875,0.22669137,1.02510822
3933.59375,0.25714898,1.22355962
3937.5,0.30962813,1.41876256
3941.40625,0.31207496,1.61103463
3945.3125,0.35256496,1.80817044
3949.21875,0.39383101,2.01420879
3953.125,0.42686638,2.22261786
3957.03125,0.46305311,2.41941619
3960.9375,0.49173194,2.59112215
3964.84375,0.51247501,2.73234820
3968.75,0.52547956,2.84804988
3972.65625,0.55747533,2.94784474
3976.5625,0.56206220,3.03773665
3980.46875,0.57546282,3.11562681
3984.375,0.58535194,3.17128277
3988.28125,0.59624535,3.19078183
3992.1875,0.59313929,3.16475964
3996.09375,0.55781251,3.09280443
4000.0,0.55618113,2.97821093
4003.90625,0.53962898,2.82289314
4007.8125,0.50263655,2.63375068
4011.71875,0.45287204,2.42965412
4015.625,0.41285229,2.23119855
4019.53125,0.41178539,2.04210281
4023.4375,0.37479359,1.84857523
4027.34375,0.32731903,1.63824463
4031.25,0.27082965,1.41160655
4035.15625,0.26028922,1.17360687
4039.0625,0.21729270,0.92450500
4042.96875,0.16308303,0.66539478
4046.875,0.12340054,0.40762362
4050.78125,0.06700315,0.17091323
4054.6875,0.06628302,-0.02826436
4058.59375,0.00732944,-0.18666735
4062.5,0.00718930,-0.31527245
4066.40625,-0.01683866,-0.43089193
4070.3125,-0.04592031,-0.54431069
4074.21875,-0.04636069,-0.65458059
4078.125,-0.08430531,-0.75316817
4082.03125,-0.08542262,-0.83226848
4085.9375,-0.09208496,-0.88977200
4089.84375,-0.10508310,-0.92848408
4093.75,-0.11700155,-0.95335621
4097.65625,-0.09885862,-0.96878213
4101.5625,-0.10819221,-0.97392809
4105.46875,-0.11348891,-0.96116447
4109.375,-0.10962307,-0.92555743
4113.28125,-0.10133436,-0.87714571
4117.1875,-0.06985982,-0.83788782
4121.09375,-0.08960033,-0.82299161
4125.0,-0.08692122,-0.82718706
4128.90625,-0.08973558,-0.82947654
4132.8125,-0.08440786,-0.80900753
4136.71875,-0.08541187,-0.75980592
4140.625,-0.05287575,-0.69606555
4144.53125,-0.04867809,-0.64118701
4148.4375,-0.05504851,-0.60719228
4152.34375,-0.05464783,-0.58623713
4156.25,-0.03526918,-0.56226319
4160.15625,-0.03265819,-0.52607787
4164.0625,-0.03788602,-0.47946388
4167.96875,-0.01418199,-0.43100405
4171.875,-0.01248957,-0.38986912
4175.78125,-0.01163386,-0.36073831
4179.6875,0.00101310,-0.34261832
4183.59375,-0.01366539,-0.33104572
4187.5,0.01256917,-0.32062376
4191.40625,-0.01414055,-0.30768028
4195.3125,0.00573186,-0.29390442
4199.21875,0.00847397,-0.28719598
4203.125,-0.00118442,-0.29553396
4207.03125,0.00707487,-0.31809705
4210.9375,-0.01178156,-0.34247848
4214.84375,-0.01376486,-0.35176128
4218.75,0.00240251,-0.33675230
4222.65625,-0.00348503,-0.30312029
4226.5625,0.01276391,-0.26715109
4230.46875,0.00635531,-0.24406655
4234.375,0.01368044,-0.23857687
4238.28125,0.01034947,-0.24477294
4242.1875,0.00918383,-0.25368568
4246.09375,0.00804576,-0.26013061
4250.0,0.00262619,-0.26392367
4253.90625,0.00168047,-0.26729199
4257.8125,0.03182515,-0.27017969
4261.71875,-0.01359461,-0.26649508
4265.625,0.00542699,-0.24928176
4269.53125,0.01983833,-0.22262172
4273.4375,0.01294385,-0.20396914
4277.34375,0.02493583,-0.21076897
4281.25,0.01473419,-0.24367613
4285.15625,-0.00690494,-0.28194520
4289.0625,0.00440673,-0.29760545
4292.96875,-0.00838688,-0.27864051
4296.875,0.02039857,-0.23991129
4300.78125,0.02600149,-0.21047322
4304.6875,0.00348522,-0.21028404
4308.59375,0.01539853,-0.23892885
4312.5,0.00404940,-0.28113142
4316.40625,-0.00818731,-0.31722271
4320.3125,0.00381286,-0.33138001
4324.21875,-0.00972024,-0.31747887
4328.125,0.00254693,-0.28156424
4332.03125,0.01200765,-0.23896393
4335.9375,0.01828621,-0.20606659
4339.84375,0.02521660,-0.19187573
4343.75,0.00576931,-0.19669053
4347.65625,0.01269446,-0.21756281
4351.5625,0.01501909,-0.25046301
4355.46875,0.01673112,-0.28481856
4359.375,-0.02405533,-0.30338702
4363.28125,0.00091483,-0.29647797
4367.1875,0.01990298,-0.27300751
4371.09375,-0.00299429,-0.25131842
4375.0,0.01350507,-0.24293888
4378.90625,0.02063469,-0.24724601
4382.8125,-0.01203924,-0.25608206
4386.71875,0.00852463,-0.26227626
4390.625,0.01375091,-0.26519680
4394.53125,0.01112650,-0.26639271
4398.4375,-0.00727583,-0.26283649
4402.34375,0.01533717,-0.25005603
4406.25,0.00453128,-0.23042218
4410.15625,0.02122352,-0.21414730
4414.0625,0.01660156,-0.21174155
4417.96875,0.00492143,-0.22634608
4421.875,0.01371348,-0.25230533
4425.78125,0.00339667,-0.27814421
4429.6875,0.00335909,-0.29036358
4433.59375,-0.00711914,-0.28002217
4437.5,0.00905284,-0.25150430
4441.40625,0.02164418,-0.22317834
4445.3125,0.01341907,-0.21384223
4449.21875,0.01184084,-0.22661805
4453.125,0.00459532,-0.24703781
4457.03125,0.00591144,-0.25609860
4460.9375,0.02119975,-0.24400195
4464.84375,-0.00559041,-0.21397188
4468.75,0.03716680,-0.17818189
4472.65625,0.01171525,-0.15143389
4476.5625,0.03862436,-0.14442223
4480.46875,0.02671979,-0.15742722
4484.375,0.00767255,-0.17885461
4488.28125,0.02156851,-0.19366150
4492.1875,0.01589832,-0.19657332
4496.09375,0.01842991,-0.19652782
4500.0,0.02247322,-0.20706151
4503.90625,0.00643936,-0.23218995
4507.8125,0.00564962,-0.26171830
4511.71875,0.00811278,-0.27945209
4515.625,-0.00320526,-0.27522445
4519.53125,0.01011520,-0.25157505
4523.4375,0.01608440,-0.22220090
4527.34375,0.01639899,-0.20363124
4531.25,0.01577742,-0.20579848
4535.15625,0.00877712,-0.22723134
4539.0625,0.02303743,-0.25546095
4542.96875,-0.01097781,-0.27228549
4546.875,0.00892952,-0.26445323
4550.78125,0.00980287,-0.23345639
4554.6875,0.02455823,-0.19471577
4558.59375,0.02182787,-0.16742034
4562.5,0.02351471,-0.16461480
4566.40625,0.01412799,-0.18774097
4570.3125,0.02539386,-0.22458543
4574.21875,0.00200837,-0.25271994
4578.125,0.01494990,-0.25238088
4582.03125,-0.01121113,-0.22399506
4585.9375,0.03474934,-0.19336262
4589.84375,0.03334531,-0.19205514
4593.75,0.00711790,-0.22792228
4597.65625,0.00417603,-0.27750397
4601.5625,-0.01076018,-0.30873328
4605.46875,-0.00390229,-0.30897185
4609.375,0.01600725,-0.29126969
4613.28125,0.01272505,-0.27574432
4617.1875,-0.00302455,-0.26804757
4621.09375,0.00875497,-0.25842696
4625.0,0.00684348,-0.23884930
4628.90625,0.02052895,-0.21544531
4632.8125,0.02348841,-0.20306574
4636.71875,0.01241020,-0.21060206
4640.625,0.01649884,-0.23310097
4644.53125,0.01512477,-0.25585914
4648.4375,-0.00981349,-0.26525363
4652.34375,0.01747948,-0.25898507
4656.25,0.01461908,-0.24676585
4660.15625,0.02446629,-0.23885351
4664.0625,-0.00650521,-0.23572601
4667.96875,0.02477055,-0.23151550
4671.875,0.00799672,-0.22463322
4675.78125,0.01893163,-0.22153914
4679.6875,0.03032922,-0.22956248
4683.59375,-0.00185455,-0.24706757
4687.5,0.00017847,-0.26379299
4691.40625,0.02791813,-0.27080157
4695.3125,0.00235269,-0.26582384
4699.21875,0.00459029,-0.25126356
4703.125,0.02339149,-0.23280403
4707.03125,0.01378113,-0.21732196
4710.9375,0.02562035,-0.20738742
4714.84375,0.01993904,-0.19870557
4718.75,0.01608749,-0.18525903
4722.65625,0.02827416,-0.16709591
4726.5625,0.04277649,-0.15125260
4730.46875,0.01537209,-0.14515486
4734.375,0.03438214,-0.15234117
4738.28125,0.03028027,-0.17332995
4742.1875,0.01804943,-0.20480144
4746.09375,0.02226482,-0.23697251
4750.0,0.00557568,-0.25613394
4753.90625,0.00947722,-0.25418961
4757.8125,0.02025513,-0.23762377
4761.71875,0.01640645,-0.22470064
4765.625,0.03263591,-0.22955488
4769.53125,0.00146599,-0.24820504
4773.4375,0.01359039,-0.26288432
4777.34375,0.00950082,-0.26091337
4781.25,0.01537466,-0.24684425
4785.15625,0.03121599,-0.23532297
4789.0625,0.00280587,-0.23503578
4792.96875,0.02753592,-0.24178611
4796.875,0.01029303,-0.24497515
4800.78125,0.01352668,-0.23820665
4804.6875,0.02944680,-0.22468346
4808.59375,0.01410219,-0.21431147
4812.5,0.02555556,-0.21640620
4816.40625,0.01895637,-0.23421791
4820.3125,0.01554959,-0.26295066
4824.21875,0.01334037,-0.29086000
4828.125,-0.00307709,-0.30490345
4832.03125,0.00878451,-0.29954258
4835.9375,0.01978893,-0.28057975
4839.84375,0.02025672,-0.25915027
4843.75,-0.00003354,-0.24435680
4847.65625,0.02994401,-0.24231300
4851.5625,0.02483139,-0.25507456
4855.46875,0.00235787,-0.27684259
4859.375,0.00550084,-0.29702002
4863.28125,0.02414900,-0.30835626
4867.1875,-0.00303035,-0.30847454
4871.09375,0.00921073,-0.29767188
4875.0,0.01752131,-0.28040135
4878.90625,0.01667472,-0.26479194
4882.8125,0.01754904,-0.25647131
4886.71875,0.02296167,-0.25426674
4890.625,0.00871592,-0.25371668
4894.53125,0.01248488,-0.25436527
4898.4375,0.04301665,-0.26013565
4902.34375,0.00155399,-0.27037123
4906.25,0.01302506,-0.27600634
4910.15625,0.01978079,-0.26936585
4914.0625,0.01071012,-0.25446531
4917.96875,0.03317446,-0.24467367
4921.875,0.01940186,-0.25006339
4925.78125,0.02765010,-0.26614225
4929.6875,-0.01285261,-0.27706549
4933.59375,0.03275280,-0.27218509
4937.5,0.03201592,-0.25550628
4941.40625,0.00830456,-0.23824923
4945.3125,0.03090784,-0.23076975
4949.21875,0.01364432,-0.24524671
4953.125,0.01276424,-0.29822758
4957.03125,0.00999323,-0.39970753
4960.9375,-0.02590658,-0.53092808
4964.84375,-0.04863928,-0.62907910
4968.75,-0.02624953,-0.59544379
4972.65625,0.00514867,-0.32455447
4976.5625,0.10657575,0.25792587
4980.46875,0.25416267,1.15823615
4984.375,0.44075078,2.29077864
4988.28125,0.66175061,3.48431993
4992.1875,0.83462578,4.52489328
4996.09375,0.93589771,5.21872568
5000.0,1.00424767,5.44586229
5003.90625,0.92906052,5.18570232
5007.8125,0.82470590,4.51058626
5011.71875,0.66298014,3.55459023
5015.625,0.48958701,2.47452044
5019.53125,0.30082637,1.41643476
5023.4375,0.13977587,0.48938677
5027.34375,0.02695934,-0.25039604
5031.25,-0.06724793,-0.79566950
5035.15625,-0.11469150,-1.16503286
5039.0625,-0.16970877,-1.37821412
5042.96875,-0.18951268,-1.44975436
5046.875,-0.16818249,-1.40092325
5050.78125,-0.13670671,-1.26878941
5054.6875,-0.12066809,-1.09824908
5058.59375,-0.08737945,-0.92638296
5062.5,-0.06390012,-0.77408880
5066.40625,-0.04289766,-0.64796895
5070.3125,-0.01953238,-0.54763758
5074.21875,-0.02235926,-0.47251809
5078.125,0.01095946,-0.42284805
5082.03125,-0.00612913,-0.39486334
5085.9375,0.00995549,-0.37819773
5089.84375,-0.00230255,-0.36174440
5093.75,0.02275993,-0.34199911
5097.65625,-0.00083857,-0.32412264
5101.5625,0.03527640,-0.31503651
5105.46875,0.00253242,-0.31536245
5109.375,0.02192623,-0.31738675
5113.28125,0.01718065,-0.31122673
5117.1875,0.00833538,-0.29445374
5121.09375,0.03386870,-0.27706936
5125.0,0.01369581,-0.27550101
5128.90625,0.03643577,-0.29776511
5132.8125,0.00647473,-0.33282492
5136.71875,0.00913719,-0.35690126
5140.625,-0.00527366,-0.35380945
5144.53125,0.02536737,-0.32914090
5148.4375,0.02971273,-0.30175161
5152.34375,0.02137152,-0.28307500
5156.25,0.01670206,-0.27120394
5160.15625,0.00755243,-0.26570526
5164.0625,0.04682508,-0.27745113
5167.96875,0.02748561,-0.31351924
5171.875,-0.00362590,-0.35671115
5175.78125,0.01477307,-0.37252825
5179.6875,-0.01287803,-0.34124124
5183.59375,0.03740941,-0.28062931
5187.5,0.04216602,-0.23400329
5191.40625,0.03594455,-0.23339166
5195.3125,0.01769780,-0.27413782
5199.21875,0.01119343,-0.32469073
5203.125,0.00140730,-0.35727105
5207.03125,0.02463787,-0.36674997
5210.9375,0.00924325,-0.36298007
5214.84375,0.01364901,-0.35203990
5218.75,0.01044388,-0.33056685
5222.65625,0.01438434,-0.29746529
5226.5625,0.02885459,-0.26562801
5230.46875,0.03833752,-0.25678182
5234.375,0.01981129,-0.28265542
5238.28125,0.01819950,-0.33200854
5242.1875,0.00454477,-0.37629268
5246.09375,0.00311944,-0.38856235
5250.0,0.00508842,-0.36172256
5253.90625,0.02850851,-0.31370711
5257.8125,0.02083173,-0.27542266
5261.71875,0.02950530,-0.27029833
5265.625,0.02296571,-0.29980883
5269.53125,0.01305041,-0.34335929
5273.4375,0.00296930,-0.37224647
5277.34375,0.01356521,-0.36887252
5281.25,0.00089317,-0.33746976
5285.15625,0.04233767,-0.29814306
5289.0625,0.02165576,-0.27007422
5292.96875,0.01421396,-0.26035532
5296.875,0.04295972,-0.26618272
5300.78125,0.01466513,-0.28035879
5304.6875,0.02644856,-0.29317042
5308.59375,0.01829603,-0.29600251
5312.5,0.02521644,-0.28746921
5316.40625,0.01720307,-0.27587339
5320.3125,0.02844927,-0.27425197
5324.21875,0.04067732,-0.28818792
5328.125,0.00930311,-0.30595660
5332.03125,-0.00110692,-0.30669570
5335.9375,0.04332925,-0.28148881
5339.84375,0.03039408,-0.24049322
5343.75,0.04035191,-0.19969921
5347.65625,0.02776836,-0.16974619
5351.5625,0.05145217,-0.15693501
5355.46875,0.05635079,-0.16388501
5359.375,0.02172784,-0.18562146
5363.28125,0.04563721,-0.21062402
5367.1875,0.03183762,-0.22725590
5371.09375,0.02161656,-0.22865054
5375.0,0.03965164,-0.21497521
5378.90625,0.05282713,-0.19077158
5382.8125,0.03264456,-0.15767361
5386.71875,0.03781745,-0.11452373
5390.625,0.07364970,-0.06621981
5394.53125,0.06587496,-0.02310090
5398.4375,0.07891539,0.01343455
5402.34375,0.07083914,0.05886066
5406.25,0.08979664,0.13426994
5410.15625,0.11487841,0.24806520
5414.0625,0.13420804,0.38920626
5417.96875,0.15518494,0.53616476
5421.875,0.19717608,0.67348450
5425.78125,0.20724212,0.80544823
5429.6875,0.21665370,0.95461500
5433.59375,0.25692558,1.14122283
5437.5,0.30096999,1.36212456
5441.40625,0.35257146,1.59293640
5445.3125,0.36475974,1.80994177
5449.21875,0.40421808,2.00684714
5453.125,0.44359547,2.19344258
5457.03125,0.46859291,2.38340282
5460.9375,0.49793598,2.58076358
5464.84375,0.53262806,2.77228928
5468.75,0.57121909,2.93416047
5472.65625,0.58427495,3.05027127
5476.5625,0.58926034,3.12360954
5480.46875,0.60671741,3.16877842
5484.375,0.58988839,3.19516373
5488.28125,0.61561638,3.19770169
5492.1875,0.60502619,3.16242957
5496.09375,0.58682519,3.07937837
5500.0,0.54546976,2.94934440
5503.90625,0.56721771,2.78271914
5507.8125,0.48005635,2.59675598
5511.71875,0.47261593,2.40785956
5515.625,0.43952990,2.21939492
5519.53125,0.42246038,2.02179766
5523.4375,0.35719204,1.80804396
5527.34375,0.33822235,1.58362830
5531.25,0.29278913,1.36027408
5535.15625,0.25028610,1.14363205
5539.0625,0.22386561,0.92698950
5542.96875,0.19146895,0.69736600
5546.875,0.14124925,0.45155331
5550.78125,0.09731084,0.20547977
5554.6875,0.03955504,-0.01723236
5558.59375,0.05427928,-0.20514579
5562.5,0.00490309,-0.36239204
5566.40625,-0.03874969,-0.49634564
5570.3125,-0.03599441,-0.61054289
5574.21875,-0.03882536,-0.70548087
5578.125,-0.07345405,-0.77862453
5582.03125,-0.09820054,-0.82927263
5585.9375,-0.06599025,-0.86757004
5589.84375,-0.09253466,-0.90986550
5593.75,-0.09990722,-0.96075338
5597.65625,-0.09360311,-1.00487363
5601.5625,-0.13213691,-1.01908445
5605.46875,-0.10475688,-0.99405235
5609.375,-0.10257234,-0.94613105
5613.28125,-0.06851770,-0.90563047
5617.1875,-0.09743055,-0.89009935
5621.09375,-0.09114578,-0.88994586
5625.0,-0.09470987,-0.87998587
5628.90625,-0.08092413,-0.84176505
5632.8125,-0.06645781,-0.77479893
5636.71875,-0.05384981,-0.69190717
5640.625,-0.05271333,-0.60921848
5644.53125,-0.01947726,-0.53979075
5648.4375,-0.03175910,-0.49086100
5652.34375,-0.02429300,-0.46381661
5656.25,-0.01018526,-0.45620462
5660.15625,-0.01433638,-0.46125385
5664.0625,-0.02408252,-0.46610183
5667.96875,-0.03269428,-0.45744228
5671.875,-0.00616104,-0.43302301
5675.78125,-0.01765110,-0.40496755
5679.6875,0.01102190,-0.38821551
5683.59375,-0.01213813,-0.38460255
5687.5,-0.02803559,-0.38062266
5691.40625,0.00112962,-0.36279774
5695.3125,0.01497264,-0.33110318
5699.21875,0.00047314,-0.29512787
5703.125,0.00608140,-0.26447967
5707.03125,0.00643370,-0.24712984
5710.9375,0.02606317,-0.24951029
5714.84375,0.00919194,-0.27062109
5718.75,0.00533690,-0.29735300
5722.65625,-0.00143370,-0.31091931
5726.5625,-0.01376880,-0.30174077
5730.46875,0.02346404,-0.27827680
5734.375,0.02036098,-0.25825933
5738.28125,-0.00522010,-0.25174177
5742.1875,0.01379165,-0.25643846
5746.09375,0.01031625,-0.26597875
5750.0,0.00164045,-0.27621174
5753.90625,0.00239354,-0.28569186
5757.8125,0.01530599,-0.29403949
5761.71875,-0.00865093,-0.29937148
5765.625,-0.00041175,-0.29841897
5769.53125,0.00489088,-0.29029557
5773.4375,0.00563717,-0.27803233
5777.34375,0.00305261,-0.26664978
5781.25,0.00816235,-0.26132232
5785.15625,0.01186257,-0.26434672
5789.0625,-0.00560441,-0.27141550
5792.96875,0.00620343,-0.27453730
5796.875,-0.00137602,-0.27106130
5800.78125,0.02330765,-0.26612759
5804.6875,-0.01230676,-0.26474631
5808.59375,0.00184756,-0.26631606
5812.5,0.01310946,-0.26824605
5816.40625,0.00101000,-0.26988399
5820.3125,0.00031112,-0.27194777
5824.21875,-0.00230264,-0.27555123
5828.125,0.00796441,-0.28137136
5832.03125,-0.01013276,-0.28833061
5835.9375,0.00294377,-0.29420587
5839.84375,0.00259523,-0.29659149
5843.75,-0.01409850,-0.29190016
5847.65625,0.00695714,-0.27652383
5851.5625,-0.00214522,-0.25221783
5855.46875,0.00718914,-0.22971088
5859.375,0.01380627,-0.22404990
5863.28125,0.00741328,-0.24253155
5867.1875,-0.01124919,-0.27552429
5871.09375,0.00694904,-0.30035481
5875.0,-0.01654137,-0.29655567
5878.90625,-0.00649454,-0.26202428
5882.8125,0.02304911,-0.21726379
5886.71875,0.00268825,-0.19058654
5890.625,0.02147877,-0.19572771
5894.53125,0.00021765,-0.22281915
5898.4375,0.00243288,-0.24916859
5902.34375,-0.01136386,-0.25802618
5906.25,0.01357304,-0.24841912
5910.15625,-0.00041421,-0.22950985
5914.0625,0.00950996,-0.21016449
5917.96875,0.00710815,-0.19650428
5921.875,0.00821654,-0.19507290
5925.78125,0.00559497,-0.21186239
5929.6875,0.00106846,-0.24569306
5933.59375,0.00142851,-0.28258380
5937.5,-0.00707284,-0.29859048
5941.40625,-0.02459775,-0.27465454
5945.3125,0.00709844,-0.21521842
5949.21875,0.02636986,-0.15110475
5953.125,0.01411054,-0.11919296
5957.03125,0.02929233,-0.13620675
5960.9375,0.00671883,-0.18745838
5964.84375,-0.01094514,-0.23777345
5968.75,-0.01132745,-0.25806642
5972.65625,0.00963278,-0.24637631
5976.5625,0.00463534,-0.22363798
5980.46875,-0.00161836,-0.21144179
5984.375,0.00930741,-0.21582930
5988.28125,-0.01043956,-0.22784235
5992.1875,0.00644892,-0.23411168
5996.09375,-0.00342437,-0.22713675
6000.0,0.00180279,-0.20901756
6003.90625,0.01420879,-0.18790552
6007.8125,-0.00200031,-0.17140667
6011.71875,0.01629445,-0.16297713
6015.625,0.01561350,-0.16323079
6019.53125,-0.00984840,-0.17298493
6023.4375,0.02749963,-0.19341323
6027.34375,-0.01589088,-0.22130916
6031.25,-0.00215767,-0.24568696
6035.15625,0.00789902,-0.25327179
6039.0625,-0.02887463,-0.23948418
6042.96875,0.01127596,-0.21446668
6046.875,0.01244566,-0.19573744
6050.78125,-0.00286284,-0.19226380
6054.6875,0.00170071,-0.19888386
6058.59375,0.00089559,-0.20671582
6062.5,-0.00437785,-0.21236993
6066.40625,0.01107117,-0.21504119
6070.3125,-0.00660469,-0.21107851
6074.21875,-0.00272991,-0.19826041
6078.125,0.00212911,-0.18541211
6082.03125,0.00790129,-0.19035175
6085.9375,0.01085126,-0.22172436
6089.84375,-0.02065924,-0.26509300
6093.75,-0.02751987,-0.29376167
6097.65625,-0.00460061,-0.29334405
6101.5625,-0.00371038,-0.27029547
6105.46875,-0.01634023,-0.23922338
6109.375,0.00041619,-0.21076010
6113.28125,0.00423384,-0.19072823
6117.1875,0.00110400,-0.18188821
6121.09375,0.01640434,-0.18260653
6125.0,-0.01639450,-0.18724431
6128.90625,-0.00363468,-0.19202641
6132.8125,0.01943678,-0.19839779
6136.71875,0.00410412,-0.20547655
6140.625,-0.01788179,-0.20375653
6144.53125,-0.00194773,-0.18541317
6148.4375,0.00982363,-0.15834425
6152.34375,0.02069810,-0.14201786
6156.25,0.00329109,-0.14966322
6160.15625,0.00931102,-0.17758648
6164.0625,-0.01854311,-0.21043649
6167.96875,-0.00817458,-0.23500338
6171.875,0.00926872,-0.24834943
6175.78125,-0.01708085,-0.25301230
6179.6875,-0.00627533,-0.24944709
6183.59375,-0.02838532,-0.23864846
6187.5,0.01224237,-0.22879529
6191.40625,-0.00749309,-0.23065953
6195.3125,0.00087536,-0.24407409
6199.21875,-0.02443972,-0.25491792
6203.125,-0.02224755,-0.25037554
6207.03125,0.01572168,-0.23363385
6210.9375,-0.01066993,-0.21900460
6214.84375,-0.01324187,-0.21762124
6218.75,-0.00050763,-0.23232356
6222.65625,-0.00010288,-0.25799114
6226.5625,-0.03085203,-0.28068915
6230.46875,-0.01896016,-0.28468409
6234.375,-0.00658038,-0.26687363
6238.28125,-0.00724827,-0.24100010
6242.1875,-0.00314832,-0.22547902
6246.09375,-0.01276792,-0.22857182
6250.0,-0.01106542,-0.24463429
6253.90625,-0.00514969,-0.26172990
6257.8125,-0.01626919,-0.27132496
6261.71875,-0.01815938,-0.27240717
6265.625,-0.01478713,-0.26909620
6269.53125,-0.00815063,-0.26508525
6273.4375,-0.01016552,-0.26021400
6277.34375,-0.01428025,-0.25261420
6281.25,-0.01163004,-0.24329722
6285.15625,-0.00929410,-0.23695977
6289.0625,-0.00491167,-0.23790598
6292.96875,-0.00451770,-0.24595056
6296.875,-0.02469130,-0.25667089
6300.78125,0.00268041,-0.26464888
6304.6875,-0.02872607,-0.26571643
6308.59375,-0.00274560,-0.25855604
6312.5,-0.01808564,-0.24706942
6316.40625,-0.00257515,-0.23933761
6320.3125,0.00314011,-0.24044624
6324.21875,-0.03269388,-0.24706000
6328.125,-0.00266098,-0.25210491
6332.03125,-0.00676291,-0.25295106
6335.9375,-0.01582849,-0.25236306
6339.84375,-0.00564714,-0.25436491
6343.75,-0.01642626,-0.26032460
6347.65625,-0.00909314,-0.26591393
6351.5625,-0.02338091,-0.26301500
6355.46875,-0.00124432,-0.24804859
6359.375,-0.00371511,-0.22637135
6363.28125,-0.00196583,-0.20603248
6367.1875,-0.01900399,-0.19162475
6371.09375,0.01109643,-0.18703906
6375.0,0.01265260,-0.19670039
6378.90625,-0.01244280,-0.21801674
6382.8125,-0.01653498,-0.23899919
6386.71875,-0.01652944,-0.25041839
6390.625,-0.00337435,-0.25673226
6394.53125,0.00065606,-0.26848719
6398.4375,-0.02093044,-0.28540605
6402.34375,-0.03653432,-0.29469374
6406.25,-0.00659257,-0.28794536
6410.15625,-0.01269061,-0.27262896
6414.0625,-0.01021946,-0.26338154
6417.96875,-0.00614097,-0.26641622
6421.875,-0.02595446,-0.27500957
6425.78125,-0.01183249,-0.27801484
6429.6875,-0.01634656,-0.27061045
6433.59375,-0.00838162,-0.25705364
6437.5,0.00143256,-0.24516711
6441.40625,-0.01427990,-0.24098130
6445.3125,-0.02696427,-0.25144246
6449.21875,-0.00641802,-0.29027694
6453.125,-0.02187852,-0.37169936
6457.03125,-0.04644555,-0.49079588
6460.9375,-0.08127474,-0.60998213
6464.84375,-0.07955103,-0.66372037
6468.75,-0.05699068,-0.57301050
6472.65625,-0.00564158,-0.26092190
6476.5625,0.07695960,0.32685962
6480.46875,0.23562367,1.19496846
6484.375,0.40851295,2.27698374
6488.28125,0.60940498,3.43375635
6492.1875,0.79767376,4.47668457
6496.09375,0.90993500,5.21238995
6500.0,0.95877451,5.49482632
6503.90625,0.92611849,5.26600790
6507.8125,0.81244153,4.57311583
6511.71875,0.62362140,3.55561805
6515.625,0.43823272,2.40184593
6519.53125,0.24195623,1.28998196
6523.4375,0.08430953,0.34119695
6527.34375,-0.01944785,-0.39317203
6531.25,-0.11660593,-0.91179448
6535.15625,-0.18804628,-1.23602509
6539.0625,-0.18854696,-1.39675474
6542.96875,-0.21411051,-1.43112946
6546.875,-0.20180272,-1.37770271
6550.78125,-0.17660029,-1.27120292
6554.6875,-0.15403390,-1.13966227
6558.59375,-0.13386832,-1.00275290
6562.5,-0.13164531,-0.87294793
6566.40625,-0.07754739,-0.75802076
6570.3125,-0.07187416,-0.65874738
6574.21875,-0.06624649,-0.56674814
6578.125,-0.06424790,-0.47438613
6582.03125,-0.01368413,-0.38854083
6585.9375,-0.02256475,-0.32743213
6589.84375,-0.01961765,-0.30292335
6593.75,-0.01168982,-0.30896807
6597.65625,-0.01890793,-0.32409677
6601.5625,-0.03521964,-0.32407761
6605.46875,-0.00900475,-0.29857239
6609.375,-0.00505044,-0.25867006
6613.28125,-0.01087710,-0.22735848
6617.1875,0.00137225,-0.22270399
6621.09375,0.00574957,-0.24601458
6625.0,-0.02683862,-0.28060356
6628.90625,-0.02264313,-0.30406013
6632.8125,-0.00669607,-0.30540413
6636.71875,-0.01529995,-0.29043162
6640.625,-0.01494565,-0.27359793
6644.53125,-0.00630337,-0.26768178
6648.4375,-0.00869991,-0.27697924
6652.34375,-0.02297483,-0.29666951
6656.25,-0.01622075,-0.32020169
6660.15625,-0.02633629,-0.34632450
6664.0625,-0.02018297,-0.37516397
6667.96875,-0.03125378,-0.39867312
6671.875,-0.04156099,-0.40117651
6675.78125,-0.02397737,-0.37312818
6679.6875,-0.02516396,-0.32322356
6683.59375,-0.00736767,-0.27558690
6687.5,0.00075118,-0.25451329
6691.40625,-0.01789891,-0.26904508
6695.3125,-0.01258125,-0.30809081
6699.21875,-0.02593189,-0.34812412
6703.125,-0.02946938,-0.36743918
6707.03125,-0.02180837,-0.35818848
6710.9375,-0.02186018,-0.32890376
6714.84375,-0.01492027,-0.29758447
6718.75,-0.01715655,-0.28239715
6722.65625,0.00135523,-0.29315513
6726.5625,-0.02118993,-0.32365641
6730.46875,-0.03844210,-0.35277924
6734.375,-0.01721762,-0.36000669
6738.28125,-0.02661891,-0.34255955
6742.1875,-0.01627988,-0.31670725
6746.09375,-0.00525825,-0.30270612
6750.0,-0.02649300,-0.30824855
6753.90625,-0.01971108,-0.32520789
6757.8125,-0.01260473,-0.33884999
6761.71875,-0.03015904,-0.33716863
6765.625,-0.01620258,-0.31601417
6769.53125,-0.01221739,-0.28277850
6773.4375,-0.00895608,-0.25576076
6777.34375,-0.00546179,-0.25525481
6781.25,-0.01186164,-0.28968695
6785.15625,-0.01366976,-0.34578905
6789.0625,-0.03486224,-0.39276668
6792.96875,-0.05006870,-0.40352744
6796.875,-0.02918785,-0.37827250
6800.78125,-0.00016754,-0.34441513
6804.6875,-0.01536248,-0.32896289
6808.59375,-0.04323738,-0.33533296
6812.5,-0.02060288,-0.34910598
6816.40625,-0.01044509,-0.35578880
6820.3125,-0.03609719,-0.34710312
6824.21875,-0.00602907,-0.31990281
6828.125,-0.02554221,-0.27789587
6832.03125,0.00191576,-0.23358129
6835.9375,-0.00889562,-0.20505893
6839.84375,0.02926894,-0.20517580
6843.75,-0.02235848,-0.22801188
6847.65625,-0.00148499,-0.24876207
6851.5625,-0.02101015,-0.24395880
6855.46875,0.01203794,-0.21332146
6859.375,0.00137743,-0.17997247
6863.28125,0.01260138,-0.16938832
6867.1875,0.00456706,-0.18802071
6871.09375,-0.00874632,-0.21948338
6875.0,-0.00025715,-0.23763829
6878.90625,-0.00456675,-0.22280195
6882.8125,0.00107806,-0.17140195
6886.71875,0.01958906,-0.09793511
6890.625,0.03607823,-0.02713673
6894.53125,0.04039091,0.02339118
6898.4375,0.04489689,0.05713287
6902.34375,0.04270511,0.09479999
6906.25,0.06869736,0.15687792
6910.15625,0.06811439,0.25042659
6914.0625,0.09944717,0.36953765
6917.96875,0.12859827,0.50454485
6921.875,0.14089140,0.65054703
6925.78125,0.16494535,0.80815905
6929.6875,0.19548827,0.97776508
6933.59375,0.24042106,1.15713859
6937.5,0.26361376,1.34631038
6941.40625,0.28581995,1.55008292
6945.3125,0.33399421,1.77096951
6949.21875,0.36219054,2.00074863
6953.125,0.42794326,2.22316909
6957.03125,0.44349179,2.42667389
6960.9375,0.45660198,2.61118007
6964.84375,0.50505942,2.77944613
6968.75,0.53427905,2.92663217
6972.65625,0.54955649,3.04387879
6976.5625,0.55514872,3.12863016
6980.46875,0.57042801,3.18620205
6984.375,0.57569987,3.22224283
6988.28125,0.58252007,3.23562837
6992.1875,0.56750309,3.21738815
6996.09375,0.57752901,3.15527296
7000.0,0.52998424,3.04009032
7003.90625,0.52822733,2.87007356
7007.8125,0.48324534,2.65425062
7011.71875,0.43193150,2.41451716
7015.625,0.40434369,2.17934084
7019.53125,0.36006579,1.96782362
7023.4375,0.32270458,1.77658737
7027.34375,0.31771216,1.58357215
7031.25,0.25484672,1.36802256
7035.15625,0.22919387,1.12774181
7039.0625,0.17110601,0.87727171
7042.96875,0.14241324,0.63357073
7046.875,0.09231001,0.40622956
7050.78125,0.07955863,0.19860432
7054.6875,0.03284293,0.01381478
7058.59375,-0.00020083,-0.14464371
7062.5,-0.02452951,-0.28040925
7066.40625,-0.02129702,-0.40809664
7070.3125,-0.06350809,-0.54272598
7074.21875,-0.07725026,-0.68406206
7078.125,-0.11730701,-0.81400007
7082.03125,-0.12239686,-0.91003180
7085.9375,-0.12036598,-0.96147329
7089.84375,-0.15261291,-0.97608852
7093.75,-0.11847153,-0.97457105
7097.65625,-0.13294747,-0.97593832
7101.5625,-0.13614015,-0.98336428
7105.46875,-0.13631232,-0.98373342
7109.375,-0.13330291,-0.96146327
7113.28125,-0.13190061,-0.91322225
7117.1875,-0.10366709,-0.85227585
7121.09375,-0.10582995,-0.79961795
7125.0,-0.09246156,-0.76790017
7128.90625,-0.10394711,-0.75207764
7132.8125,-0.10373714,-0.73606068
7136.71875,-0.06997092,-0.70710367
7140.625,-0.09387211,-0.66287094
7144.53125,-0.08003291,-0.61028272
7148.4375,-0.05802852,-0.56208235
7152.34375,-0.04775589,-0.52875596
7156.25,-0.07105874,-0.50898778
7160.15625,-0.05371890,-0.49151281
7164.0625,-0.04568757,-0.46700275
7167.96875,-0.04364267,-0.43550098
7171.875,-0.04879876,-0.40549412
7175.78125,-0.02736720,-0.38872585
7179.6875,-0.03901371,-0.39113128
7183.59375,-0.03327937,-0.40493202
7187.5,-0.05527860,-0.41232431
7191.40625,-0.02801044,-0.39944237
7195.3125,-0.04843837,-0.36683744
7199.21875,-0.01560568,-0.32788354
7203.125,-0.01714049,-0.29791498
7207.03125,-0.02825860,-0.28338268
7210.9375,-0.01955551,-0.28038529
7214.84375,-0.01961640,-0.28209224
7218.75,-0.02220451,-0.28523690
7222.65625,-0.01573726,-0.28937903
7226.5625,-0.02121850,-0.29165021
7230.46875,-0.02517321,-0.28551769
7234.375,-0.02875203,-0.26852366
7238.28125,0.00089972,-0.24933636
7242.1875,-0.01663592,-0.24105924
7246.09375,-0.01906841,-0.24741143
7250.0,-0.01010017,-0.25912881
7253.90625,-0.02326716,-0.26314208
7257.8125,-0.02310966,-0.25450146
7261.71875,-0.01052972,-0.24159105
7265.625,-0.00613558,-0.23859671
7269.53125,-0.01033212,-0.25026181
7273.4375,-0.03595996,-0.26653776
7277.34375,-0.01753454,-0.27509809
7281.25,-0.01844270,-0.27564129
7285.15625,-0.01269436,-0.27791241
7289.0625,-0.02860422,-0.28857675
7292.96875,-0.03050763,-0.30431911
7296.875,-0.01933660,-0.31560650
7300.78125,-0.02848232,-0.31315455
7304.6875,-0.03052860,-0.29329282
7308.59375,-0.01860837,-0.26211873
7312.5,-0.00670020,-0.23347841
7316.40625,-0.01605420,-0.21930702
7320.3125,-0.00432431,-0.22169727
7324.21875,-0.02941023,-0.23478740
7328.125,-0.00908178,-0.25236413
7332.03125,-0.01757572,-0.27111575
7335.9375,-0.02782630,-0.28733009
7339.84375,-0.02230151,-0.29485774
7343.75,-0.02746873,-0.28911418
7347.65625,-0.01976924,-0.27286541
7351.5625,-0.02601934,-0.25724927
7355.46875,-0.00211638,-0.25393513
7359.375,-0.02127241,-0.26283860
7363.28125,-0.03383291,-0.27074304
7367.1875,-0.01920087,-0.26665378
7371.09375,-0.01223143,-0.25476256
7375.0,-0.02051681,-0.24741939
7378.90625,-0.00646497,-0.24866094
7382.8125,-0.02741250,-0.24973211
7386.71875,-0.02667983,-0.24090779
7390.625,0.00279837,-0.22369413
7394.53125,-0.01634623,-0.20820476
7398.4375,-0.00990272,-0.20194712
7402.34375,-0.01037948,-0.20520207
7406.25,-0.00934170,-0.21348134
7410.15625,-0.01559334,-0.22063211
7414.0625,-0.01828630,-0.22274996
7417.96875,-0.00311842,-0.22159812
7421.875,-0.02168689,-0.22276095
7425.78125,-0.01442813,-0.23031820
7429.6875,-0.00760540,-0.24302039
7433.59375,-0.02031865,-0.25352633
7437.5,-0.03370113,-0.25336397
7441.40625,-0.01004409,-0.24195856
7445.3125,-0.00262736,-0.22751455
7449.21875,-0.01230106,-0.21722895
7453.125,-0.03503891,-0.21379447
7457.03125,-0.00757713,-0.22282815
7460.9375,0.00817866,-0.25036174
7464.84375,-0.03323102,-0.28641289
7468.75,-0.04689299,-0.30444968
7472.65625,-0.01769490,-0.28703287
7476.5625,-0.01381186,-0.24437194
7480.46875,-0.00540652,-0.20279934
7484.375,-0.00488242,-0.18156940
7488.28125,-0.01334009,-0.18285507
7492.1875,-0.00796919,-0.19730087
7496.09375,-0.01030410,-0.21368288
7500.0,-0.01270621,-0.22422360
7503.90625,-0.01474577,-0.22562625
7507.8125,-0.01578738,-0.21905820
7511.71875,-0.00562086,-0.20940438
7515.625,-0.00903470,-0.20284823
7519.53125,-0.01873659,-0.20434158
7523.4375,-0.00076324,-0.21614739
7527.34375,-0.02207107,-0.23621832
7531.25,-0.01615373,-0.25727704
7535.15625,-0.01176254,-0.26888308
7539.0625,-0.03558758,-0.26309165
7542.96875,-0.01759353,-0.24272305
7546.875,-0.00303001,-0.22404565
7550.78125,-0.00341862,-0.22444339
7554.6875,-0.02688578,-0.24516273
7558.59375,-0.02251280,-0.27042925
7562.5,-0.02531085,-0.28363177
7566.40625,-0.01535852,-0.28043342
7570.3125,-0.01324962,-0.26676917
7574.21875,-0.03108782,-0.25021806
7578.125,-0.00857944,-0.23696606
7582.03125,-0.01136913,-0.23271886
7585.9375,-0.01296725,-0.24017087
7589.84375,-0.01989050,-0.25512215
7593.75,-0.01406671,-0.26771846
7597.65625,-0.03265205,-0.26935038
7601.5625,-0.00900450,-0.25937513
7605.46875,-0.00914144,-0.24380828
7609.375,-0.01275260,-0.22751836
7613.28125,-0.02522996,-0.21276550
7617.1875,0.00359725,-0.20546412
7621.09375,0.00201989,-0.21363412
7625.0,-0.03303408,-0.23658171
7628.90625,-0.00616267,-0.26193035
7632.8125,-0.00911732,-0.27404279
7636.71875,-0.04084715,-0.26393706
7640.625,-0.00463786,-0.23688808
7644.53125,-0.00297938,-0.21156999
7648.4375,-0.00205367,-0.20490259
7652.34375,-0.00849342,-0.21623318
7656.25,-0.01789760,-0.22939904
7660.15625,-0.01615475,-0.23008047
7664.0625,-0.00406942,-0.21937370
7667.96875,0.00375167,-0.21021728
7671.875,-0.01555642,-0.21318842
7675.78125,-0.01298412,-0.22855870
7679.6875,-0.00146776,-0.24948345
7683.59375,-0.03467374,-0.26848727
7687.5,-0.00416933,-0.28113690
7691.40625,-0.01198280,-0.28466955
7695.3125,-0.03480873,-0.27517191
7699.21875,-0.00005570,-0.25158966
7703.125,-0.01963603,-0.22348113
7707.03125,0.00041550,-0.20920795
7710.9375,0.00736043,-0.22146347
7714.84375,-0.02315342,-0.25355911
7718.75,-0.02249344,-0.28284359
7722.65625,-0.00851417,-0.28944004
7726.5625,-0.02870614,-0.27118352
7730.46875,0.00037703,-0.24330142
7734.375,-0.00584234,-0.22581241
7738.28125,0.00355826,-0.22773717
7742.1875,-0.02918112,-0.24184591
7746.09375,-0.00530517,-0.25557458
7750.0,-0.00212576,-0.26374185
7753.90625,-0.02842153,-0.26888931
7757.8125,0.00313180,-0.27387536
7761.71875,-0.02327185,-0.27628252
7765.625,-0.00492894,-0.26856911
7769.53125,-0.02230167,-0.24585551
7773.4375,0.00240893,-0.21514350
7777.34375,0.01325609,-0.19259278
7781.25,-0.00581864,-0.18918276
7785.15625,-0.00602153,-0.20233537
7789.0625,0.00894576,-0.22102673
7792.96875,-0.01134080,-0.23333628
7796.875,-0.00538638,-0.23031572
7800.78125,0.00375238,-0.20990580
7804.6875,-0.00073251,-0.17979783
7808.59375,0.01288035,-0.15494515
7812.5,0.00865284,-0.14957404
7816.40625,0.01731494,-0.16722533
7820.3125,-0.00520247,-0.19589980
7824.21875,0.00829448,-0.21468769
7828.125,-0.01419583,-0.20963077
7832.03125,0.00614374,-0.18725386
7835.9375,0.01626468,-0.17157653
7839.84375,0.02341015,-0.18213327
7843.75,-0.01858436,-0.21410656
7847.65625,-0.00578939,-0.24439909
7851.5625,0.00472060,-0.25557101
7855.46875,-0.01376331,-0.24981201
7859.375,0.00308683,-0.24334764
7863.28125,0.00312286,-0.25058904
7867.1875,-0.00875863,-0.26990238
7871.09375,-0.00922439,-0.28317127
7875.0,-0.01361634,-0.27227694
7878.90625,0.00089655,-0.23744780
7882.8125,0.01229617,-0.19943078
7886.71875,0.00097631,-0.18396002
7890.625,0.03021299,-0.20180263
7894.53125,-0.01954657,-0.24011138
7898.4375,-0.00885722,-0.27340814
7902.34375,0.00595549,-0.28449550
7906.25,-0.01520999,-0.27458480
7910.15625,0.00239600,-0.25674570
7914.0625,0.00799411,-0.24308942
7917.96875,0.00065498,-0.23591955
7921.875,-0.00396047,-0.22980139
7925.78125,0.00983650,-0.22248198
7929.6875,0.00379936,-0.22069085
7933.59375,0.00744285,-0.23332649
7937.5,0.00518293,-0.26095986
7941.40625,-0.00985700,-0.29389128
7945.3125,-0.01696733,-0.32183385
7949.21875,-0.01316209,-0.34634444
7953.125,-0.01534664,-0.38214543
7957.03125,-0.03297737,-0.44305295
7960.9375,-0.03486646,-0.52124178
7964.84375,-0.05225638,-0.57140398
7968.75,-0.03339797,-0.50945610
7972.65625,0.00326191,-0.23350835
7976.5625,0.08924969,0.33452824
7980.46875,0.25486204,1.20516539
7984.375,0.43685138,2.30042887
7988.28125,0.61962903,3.46435285
7992.1875,0.80163670,4.49666166
7996.09375,0.96151322,5.20362806
8000.0,0.93287480,5.45383406
8003.90625,0.94466895,5.21133327
8007.8125,0.81549311,4.53506994
8011.71875,0.64613873,3.55783200
8015.625,0.45417246,2.45029163
8019.53125,0.26850757,1.37264264
8023.4375,0.14475718,0.43655515
8027.34375,-0.01130794,-0.30220750
8031.25,-0.09675588,-0.83096254
8035.15625,-0.13885874,-1.16706967
8039.0625,-0.17287233,-1.34613109
8042.96875,-0.18837681,-1.40773225
8046.875,-0.18349645,-1.38552690
8050.78125,-0.17927791,-1.30582917
8054.6875,-0.12775131,-1.18790829
8058.59375,-0.12722613,-1.04238164
8062.5,-0.11768776,-0.87619621
8066.40625,-0.05313209,-0.70533013
8070.3125,-0.03681573,-0.55713266
8074.21875,-0.02595630,-0.45523787
8078.125,-0.02446009,-0.40569514
8082.03125,0.00405719,-0.39556178
8085.9375,-0.01740138,-0.39775613
8089.84375,-0.02705811,-0.38288981
8093.75,0.00294327,-0.33876127
8097.65625,0.01182773,-0.27981675
8101.5625,0.01035109,-0.23409940
8105.46875,0.02807001,-0.22096401
8109.375,0.01355273,-0.23825817
8113.28125,0.00113268,-0.26659855
8117.1875,0.00168808,-0.28761247
8121.09375,0.01470343,-0.29984233
8125.0,0.00348827,-0.31517762
8128.90625,0.00274132,-0.34064838
8132.8125,-0.01653367,-0.36731875
8136.71875,0.00086763,-0.37749943
8140.625,-0.01076337,-0.36063129
8144.53125,0.00757768,-0.32215929
8148.4375,0.00649778,-0.27966622
8152.34375,0.01349808,-0.25177759
8156.25,0.02644026,-0.24812424
8160.15625,0.00310560,-0.26491836
8164.0625,0.02256702,-0.28729534
8167.96875,-0.00800261,-0.29841763
8171.875,0.00746858,-0.29232416
8175.78125,0.01709353,-0.27982184
8179.6875,0.02916221,-0.27734628
8183.59375,-0.00721119,-0.28983548
8187.5,0.00299804,-0.31036344
8191.40625,0.00786421,-0.33392477
8195.3125,0.00508756,-0.36111060
8199.21875,-0.00499426,-0.38773468
8203.125,-0.01300175,-0.40080941
8207.03125,-0.00801738,-0.38966212
8210.9375,0.00577777,-0.35802051
8214.84375,-0.00918064,-0.32357064
8218.75,0.02819557,-0.30549958
8222.65625,0.02178786,-0.30796605
8226.5625,-0.01558064,-0.31468159
8230.46875,0.00142605,-0.30685499
8234.375,0.02329567,-0.28687274
8238.28125,0.02490424,-0.27552590
8242.1875,0.02105119,-0.28560400
8246.09375,-0.00931065,-0.30736762
8250.0,0.00354610,-0.32245234
8253.90625,0.02337817,-0.32367682
8257.8125,0.00945036,-0.31584650
8261.71875,0.00290697,-0.30471718
8265.625,0.01456760,-0.29335573
8269.53125,0.02050324,-0.28514445
8273.4375,0.01057299,-0.28381777
8277.34375,0.01207275,-0.29137531
8281.25,0.02224541,-0.30665565
8285.15625,0.00293281,-0.32421795
8289.0625,-0.00093068,-0.33681208
8292.96875,0.01956269,-0.34103513
8296.875,-0.00351016,-0.33835629
8300.78125,0.01731463,-0.33100325
8304.6875,0.00322182,-0.31984851
8308.59375,0.02271893,-0.30560634
8312.5,-0.00079960,-0.29081687
8316.40625,0.02795421,-0.28138164
8320.3125,0.01877569,-0.28424397
8324.21875,0.01284611,-0.30042005
8328.125,0.00740198,-0.32056755
8332.03125,0.01721316,-0.32848683
8335.9375,0.00942957,-0.31067851
8339.84375,0.00766202,-0.26831955
8343.75,0.03650247,-0.22314909
8347.65625,0.03240129,-0.20514457
8351.5625,0.04169124,-0.22629866
8355.46875,0.01241036,-0.26611656
8359.375,0.00700841,-0.28764269
8363.28125,0.01314743,-0.27068785
8367.1875,0.04184148,-0.22793321
8371.09375,0.04578375,-0.18791460
8375.0,0.01624951,-0.16727467
8378.90625,0.05357201,-0.16142765
8382.8125,0.03953128,-0.15375499
8386.71875,0.03476330,-0.12897946
8390.625,0.05367244,-0.08423561
8394.53125,0.06840580,-0.03085296
8398.4375,0.06775145,0.01783038
8402.34375,0.07905397,0.06075743
8406.25,0.08428670,0.11097084
8410.15625,0.09322274,0.18603845
8414.0625,0.12448230,0.29730141
8417.96875,0.13117743,0.44469205
8421.875,0.18256588,0.61811602
8425.78125,0.19265607,0.80378383
8429.6875,0.24884160,0.99183506
8433.59375,0.24654885,1.17983353
8437.5,0.31685024,1.37102842
8441.40625,0.32498410,1.57163918
8445.3125,0.36109707,1.78718710
8449.21875,0.41140985,2.01591253
8453.125,0.45386162,2.24627185
8457.03125,0.47600505,2.46308064
8460.9375,0.50317085,2.65351963
8464.84375,0.55919719,2.80941463
8468.75,0.56522578,2.93228841
8472.65625,0.56411630,3.03506708
8476.5625,0.58993059,3.12925839
8480.46875,0.62271285,3.21015167
8484.375,0.61014903,3.25956035
8488.28125,0.61435503,3.26016808
8492.1875,0.62158835,3.20554543
8496.09375,0.57735461,3.10258794
8500.0,0.57122892,2.96694684
8503.90625,0.53619021,2.81280923
8507.8125,0.51730233,2.64605927
8511.71875,0.49320152,2.46714878
8515.625,0.43684810,2.27661681
8519.53125,0.41814539,2.07380366
8523.4375,0.37962380,1.85330498
8527.34375,0.35075235,1.61034298
8531.25,0.29039842,1.35106421
8535.15625,0.24157406,1.09249055
8539.0625,0.22146201,0.85069609
8542.96875,0.16406961,0.63080323
8546.875,0.14218725,0.42603946
8550.78125,0.11119818,0.22319935
8554.6875,0.06055069,0.01162638
8558.59375,0.03901428,-0.20795318
8562.5,0.00028353,-0.42008173
8566.40625,-0.04604684,-0.60080642
8570.3125,-0.05092755,-0.73246247
8574.21875,-0.07687321,-0.81559950
8578.125,-0.06673586,-0.86585897
8582.03125,-0.09192315,-0.90015751
8585.9375,-0.08999784,-0.92780030
8589.84375,-0.09533428,-0.95184898
8593.75,-0.08592384,-0.97149843
8597.65625,-0.10458878,-0.98069054
8601.5625,-0.10494117,-0.97133803
8605.46875,-0.09199383,-0.94368750
8609.375,-0.07514822,-0.91047198
8613.28125,-0.09081518,-0.88721138
8617.1875,-0.08016726,-0.87969428
8621.09375,-0.08028143,-0.87996733
8625.0,-0.07962427,-0.87084031
8628.90625,-0.08271378,-0.83635831
8632.8125,-0.05798180,-0.77349758
8636.71875,-0.05316448,-0.69541031
8640.625,-0.04602655,-0.62276620
8644.53125,-0.01254982,-0.57029265
8648.4375,-0.03419530,-0.53779018
8652.34375,-0.02031776,-0.51274532
8656.25,-0.02308247,-0.48302791
8660.15625,0.00025059,-0.44644675
8664.0625,-0.01296744,-0.40851822
8667.96875,0.01690505,-0.37493393
8671.875,-0.00508574,-0.34805205
8675.78125,0.01054433,-0.32872519
8679.6875,0.01618407,-0.31856540
8683.59375,0.00344301,-0.31876591
8687.5,0.01860740,-0.32709065
8691.40625,0.01082342,-0.33595493
8695.3125,0.00239458,-0.33409926
8699.21875,0.00467953,-0.31476176
8703.125,0.01779771,-0.28471202
8707.03125,0.03613620,-0.26113909
8710.9375,0.00946017,-0.25706545
8714.84375,0.02250983,-0.27224848
8718.75,0.00673772,-0.29730949
8722.65625,0.01991949,-0.32109517
8726.5625,0.00146633,-0.33378926
8730.46875,0.00794327,-0.32950491
8734.375,0.01755841,-0.30998838
8738.28125,0.00881877,-0.28483236
8742.1875,0.01471934,-0.26704541
8746.09375,0.03024190,-0.26623711
8750.0,0.01670514,-0.28137070
8753.90625,0.00966860,-0.29944479
8757.8125,0.00353793,-0.30534735
8761.71875,0.01205677,-0.29428601
8765.625,0.03237427,-0.27261081
8769.53125,0.01761390,-0.24802317
8773.4375,0.01688720,-0.22455084
8777.34375,0.02737380,-0.20791775
8781.25,0.02881478,-0.20863822
8785.15625,0.03086235,-0.23385467
8789.0625,0.01452042,-0.27681211
8792.96875,0.00786091,-0.31703940
8796.875,-0.00115021,-0.33288237
8800.78125,0.01070603,-0.31655005
8804.6875,0.01451577,-0.27951571
8808.59375,0.02778758,-0.24387692
8812.5,0.02289884,-0.22756742
8816.40625,0.01227955,-0.23619394
8820.3125,0.02974659,-0.26448655
8824.21875,0.00403668,-0.29998809
8828.125,0.00654350,-0.32678056
8832.03125,0.00507262,-0.33317748
8835.9375,0.00611613,-0.31946051
8839.84375,0.01620650,-0.29670241
8843.75,0.00912160,-0.27765638
8847.65625,0.01017354,-0.26956192
8851.5625,0.03541522,-0.27242899
8855.46875,0.00175772,-0.27909264
8859.375,0.00698475,-0.27891159
8863.28125,0.01654502,-0.26697037
8867.1875,0.02476344,-0.24905154
8871.09375,0.02530336,-0.23523369
8875.0,0.01629715,-0.23076633
8878.90625,0.01509602,-0.23537669
8882.8125,0.01632721,-0.24896805
8886.71875,0.02848064,-0.27222309
8890.625,0.00850537,-0.29924873
8894.53125,-0.00864590,-0.31506184
8898.4375,0.02183360,-0.30603522
8902.34375,0.00558644,-0.27213556
8906.25,0.01893733,-0.22835550
8910.15625,0.03634958,-0.19567394
8914.0625,0.02086170,-0.18781762
8917.96875,0.04174921,-0.20214126
8921.875,0.00061747,-0.22262138
8925.78125,0.02259954,-0.23354906
8929.6875,0.02443184,-0.23105900
8933.59375,0.02972852,-0.22217719
8937.5,0.01102560,-0.21695884
8941.40625,0.02172518,-0.22372617
8945.3125,0.02127786,-0.24536414
8949.21875,0.02091204,-0.27350557
8953.125,0.00336598,-0.28986651
8957.03125,-0.00084753,-0.28088024
8960.9375,0.02637345,-0.25138110
8964.84375,0.02406546,-0.21998064
8968.75,0.02036527,-0.20229791
8972.65625,0.02758617,-0.20063129
8976.5625,0.03292130,-0.20469826
8980.46875,0.00601302,-0.19983794
8984.375,0.02936933,-0.18112808
8988.28125,0.03790134,-0.16174509
8992.1875,0.03230472,-0.16163950
8996.09375,0.02715371,-0.18633519
9000.0,0.02855048,-0.21936531
9003.90625,0.00279836,-0.23604743
9007.8125,0.01419001,-0.22575904
9011.71875,0.03246314,-0.20150061
9015.625,0.03796933,-0.18564595
9019.53125,0.02573578,-0.18665041
9023.4375,0.01476294,-0.19299266
9027.34375,0.01858972,-0.18972541
9031.25,0.03050596,-0.17676528
9035.15625,0.04452763,-0.16764796
9039.0625,0.02979961,-0.17110169
9042.96875,0.01407422,-0.17874014
9046.875,0.02784655,-0.17507428
9050.78125,0.02557752,-0.15801784
9054.6875,0.04917397,-0.14469519
9058.59375,0.02753451,-0.15521197
9062.5,0.02081515,-0.19295467
9066.40625,0.01947246,-0.24197096
9070.3125,0.00561994,-0.28058675
9074.21875,0.00772243,-0.29539996
9078.125,0.01462938,-0.28487679
9082.03125,0.01061717,-0.25486138
9085.9375,0.02263409,-0.21487083
9089.84375,0.02152725,-0.17812508
9093.75,0.03161150,-0.15954161
9097.65625,0.03850231,-0.16788502
9101.5625,0.02214922,-0.19769698
9105.46875,0.01793182,-0.23079883
9109.375,-0.00204278,-0.24956225
9113.28125,0.02480653,-0.25057200
9117.1875,0.02815174,-0.24383564
9121.09375,0.01095521,-0.23853312
9125.0,0.01547367,-0.23304717
9128.90625,0.01175478,-0.22011326
9132.8125,0.03283321,-0.19836475
9136.71875,0.02753983,-0.17630424
9140.625,0.03467020,-0.16588818
9144.53125,0.00556528,-0.17398854
9148.4375,0.05192808,-0.19809125
9152.34375,0.00970506,-0.22595185
9156.25,0.00763496,-0.24156547
9160.15625,0.02215807,-0.23757531
9164.0625,0.01318325,-0.22140847
9167.96875,0.04160371,-0.20617075
9171.875,0.01479875,-0.19771744
9175.78125,0.01147699,-0.19450162
9179.6875,0.03136834,-0.19760256
9183.59375,0.03427722,-0.21199584
9187.5,0.00949874,-0.23490287
9191.40625,0.01377841,-0.25035888
9195.3125,0.01514526,-0.24109472
9199.21875,0.01748227,-0.20541283
9203.125,0.03990164,-0.16157985
9207.03125,0.03441413,-0.13441636
9210.9375,0.03206817,-0.13582614
9214.84375,0.03451362,-0.15806955
9218.75,0.01937570,-0.18460511
9222.65625,0.02958773,-0.20455183
9226.5625,0.01818242,-0.21694271
9230.46875,0.00997545,-0.22627479
9234.375,0.03893703,-0.23775373
9238.28125,-0.00220387,-0.25425410
9242.1875,0.01886578,-0.27396390
9246.09375,0.01184242,-0.28971452
9250.0,-0.00126348,-0.29216424
9253.90625,0.01405410,-0.27760023
9257.8125,0.01938280,-0.25284797
9261.71875,0.02402818,-0.22930524
9265.625,0.00852560,-0.21447091
9269.53125,0.02741063,-0.21240465
9273.4375,0.02199205,-0.22597547
9277.34375,0.02797044,-0.25104123
9281.25,-0.00494156,-0.27297306
9285.15625,0.01267304,-0.27850011
9289.0625,0.01063737,-0.27068222
9292.96875,0.02487070,-0.26540071
9296.875,0.00902147,-0.27293706
9300.78125,0.01168439,-0.28804630
9304.6875,0.00403806,-0.29823697
9308.59375,0.00334792,-0.29799408
9312.5,0.00639282,-0.29387528
9316.40625,0.02910417,-0.29583138
9320.3125,0.00470730,-0.30341044
9324.21875,-0.01184169,-0.30406576
9328.125,0.02078225,-0.28779346
9332.03125,0.01177925,-0.25980255
9335.9375,0.02376975,-0.23678195
9339.84375,0.02348251,-0.23311839
9343.75,0.01323309,-0.24965514
9347.65625,0.01187280,-0.27285317
9351.5625,0.01021064,-0.28520295
9355.46875,0.01666831,-0.27830920
9359.375,0.00737248,-0.25861660
9363.28125,0.01897483,-0.24296029
9367.1875,0.03314677,-0.24569978
9371.09375,0.00850291,-0.26465085
9375.0,0.00889923,-0.28012666
9378.90625,0.00873241,-0.27216265
9382.8125,0.02364411,-0.23987296
9386.71875,0.02410355,-0.20364736
9390.625,0.03337082,-0.18876082
9394.53125,0.02466574,-0.20533872
9398.4375,0.01758948,-0.24112368
9402.34375,0.02145983,-0.27121136
9406.25,0.00026592,-0.27528009
9410.15625,0.02263154,-0.25053459
9414.0625,0.01789675,-0.21387209
9417.96875,0.04064997,-0.19153158
9421.875,0.03217821,-0.20109124
9425.78125,0.00573166,-0.23944226
9429.6875,0.00873378,-0.28749171
9433.59375,0.02589530,-0.32392693
9437.5,-0.00977590,-0.33448699
9441.40625,0.00306496,-0.31801614
9445.3125,0.01624042,-0.29165202
9449.21875,0.01466317,-0.28594264
9453.125,0.00023126,-0.32806814
9457.03125,-0.00152886,-0.42363700
9460.9375,-0.03417324,-0.54412341
9464.84375,-0.03923223,-0.62348783
9468.75,-0.03243475,-0.56883520
9472.65625,0.00326896,-0.28578785
9476.5625,0.11255309,0.28819826
9480.46875,0.25243112,1.15447152
9484.375,0.44585848,2.23856497
9488.28125,0.61191916,3.39441562
9492.1875,0.82129568,4.42937183
9496.09375,0.93547142,5.15126467
9500.0,0.97849584,5.42456198
9503.90625,0.94487619,5.20844698
9507.8125,0.82194424,4.56005526
9511.71875,0.67065740,3.60814571
9515.625,0.48505202,2.51257300
9519.53125,0.29736593,1.42439103
9523.4375,0.14046049,0.45815843
9527.34375,0.01015576,-0.31718537
9531.25,-0.08108687,-0.87274438
9535.15625,-0.15217112,-1.21229053
9539.0625,-0.17049433,-1.36902106
9542.96875,-0.16062184,-1.39612949
9546.875,-0.16000623,-1.34475052
9550.78125,-0.15864639,-1.24589312
9554.6875,-0.12868789,-1.11407399
9558.59375,-0.09168023,-0.96250218
9562.5,-0.08073761,-0.80854619
9566.40625,-0.03613283,-0.66767311
9570.3125,-0.04498126,-0.54847729
9574.21875,-0.01094222,-0.45485762
9578.125,-0.00056297,-0.38993722
9582.03125,0.00122270,-0.35506669
9585.9375,0.00806020,-0.34490484
9589.84375,0.01418639,-0.34448412
9593.75,-0.01753028,-0.33487397
9597.65625,0.01631614,-0.30830356
9601.5625,0.02489911,-0.27770635
9605.46875,0.01618964,-0.26497218
9609.375,0.02509380,-0.27813026
9613.28125,-0.00272111,-0.30277896
9617.1875,0.01054980,-0.31642726
9621.09375,0.01523259,-0.30943885
9625.0,0.00803578,-0.29117030
9628.90625,0.02530913,-0.27769950
9632.8125,0.01679847,-0.27590796
9636.71875,0.00475072,-0.28020802
9640.625,0.02053586,-0.28304404
9644.53125,0.02045944,-0.28381246
9648.4375,0.00533708,-0.28639781
9652.34375,0.01796208,-0.29309949
9656.25,0.01487540,-0.30211809
9660.15625,0.01448738,-0.30754629
9664.0625,-0.00485388,-0.30370584
9667.96875,0.02529785,-0.29272932
9671.875,0.01767302,-0.28436872
9675.78125,0.00949994,-0.28586927
9679.6875,0.01387256,-0.29582787
9683.59375,0.01360617,-0.30876467
9687.5,0.00583610,-0.32169214
9691.40625,0.00237547,-0.33529940
9695.3125,0.01043222,-0.35025144
9699.21875,0.00201788,-0.36260667
9703.125,0.00322796,-0.36421233
9707.03125,-0.00501771,-0.35021150
9710.9375,0.00549957,-0.32640696
9714.84375,0.02074973,-0.30691943
9718.75,0.01114617,-0.30321243
9722.65625,0.00904298,-0.31577593
9726.5625,0.00457754,-0.33522728
9730.46875,0.00315335,-0.34951082
9734.375,-0.00978689,-0.35226080
9738.28125,0.02786419,-0.34670013
9742.1875,-0.00077644,-0.34026039
9746.09375,-0.01014349,-0.33761501
9750.0,0.01252907,-0.34178880
9753.90625,0.01067857,-0.35489428
9757.8125,0.00133820,-0.37099510
9761.71875,-0.01019255,-0.37519589
9765.625,-0.00912726,-0.35837999
9769.53125,0.02616685,-0.32945779
9773.4375,0.00593276,-0.30691159
9777.34375,-0.00050088,-0.30130383
9781.25,0.02966562,-0.30913985
9785.15625,0.00089779,-0.31828463
9789.0625,-0.00354696,-0.31755021
9792.96875,0.01423123,-0.30658293
9796.875,0.01232951,-0.29686496
9800.78125,0.02697564,-0.30001399
9804.6875,-0.01007598,-0.31660581
9808.59375,0.01253290,-0.33740973
9812.5,-0.01069780,-0.35190362
9816.40625,0.01584933,-0.35345402
9820.3125,0.00325773,-0.33922279
9824.21875,0.00647210,-0.30980656
9828.125,0.00420026,-0.27195269
9832.03125,0.02421927,-0.24002993
9835.9375,0.03484899,-0.22862728
9839.84375,0.01564200,-0.23937912
9843.75,0.01495398,-0.25650311
9847.65625,0.01341718,-0.25754240
9851.5625,0.02717775,-0.22973515
9855.46875,0.01001100,-0.18002684
9859.375,0.06642794,-0.13238780
9863.28125,0.02267019,-0.11254497
9867.1875,0.04769382,-0.13087529
9871.09375,0.03077609,-0.17592685
9875.0,0.01467336,-0.22075944
9878.90625,0.01498557,-0.23832859
9882.8125,0.03192174,-0.21680826
9886.71875,0.03249270,-0.16188228
9890.625,0.04342173,-0.08669383
9894.53125,0.03930436,-0.00447083
9898.4375,0.08984041,0.07236345
9902.34375,0.09782896,0.13769870
9906.25,0.06353701,0.19956027
9910.15625,0.10670968,0.27472672
9914.0625,0.13382657,0.37500471
9917.96875,0.13685961,0.50277472
9921.875,0.16261534,0.65402502
9925.78125,0.20577388,0.82146358
9929.6875,0.22913709,1.00069010
9933.59375,0.24033464,1.19349253
9937.5,0.30379346,1.39891374
9941.40625,0.31858134,1.60506201
9945.3125,0.38279748,1.79948962
9949.21875,0.38476175,1.98689711
9953.125,0.40365201,2.18583107
9957.03125,0.46566802,2.40281868
9960.9375,0.50982606,2.61765313
9964.84375,0.52896202,2.80023885
9968.75,0.54829341,2.93584561
9972.65625,0.55451953,3.02976608
9976.5625,0.59098345,3.09400558
9980.46875,0.56664747,3.13445115
9984.375,0.60211176,3.14782047
9988.28125,0.57598644,3.12858033
9992.1875,0.57581174,3.07896781
9996.09375,0.55424297,3.00878572
10000.0,0.54111093,2.92227674
10003.90625,0.54733324,2.80988121
10007.8125,0.48809579,2.65888381
10011.71875,0.47374925,2.46985745
10015.625,0.42767647,2.25831699
10019.53125,0.41306007,2.04268837
10023.4375,0.34551069,1.83231437
10027.34375,0.32192579,1.62194943
10031.25,0.29205263,1.39627934
10035.15625,0.26761782,1.14679575
10039.0625,0.18553877,0.88651854
10042.96875,0.14990826,0.64087397
10046.875,0.12209313,0.42229569
10050.78125,0.10480753,0.22104271
10054.6875,0.04101669,0.02155151
10058.59375,0.03252429,-0.17904568
10062.5,-0.01294709,-0.36788592
10066.40625,-0.04278774,-0.52659792
10070.3125,-0.07122395,-0.64705980
10074.21875,-0.06885092,-0.74024731
10078.125,-0.07392444,-0.82492077
10082.03125,-0.09941268,-0.90482676
10085.9375,-0.13330773,-0.96343738
10089.84375,-0.12105589,-0.98554134
10093.75,-0.10666461,-0.97788370
10097.65625,-0.10971820,-0.96347409
10101.5625,-0.11685739,-0.95977592
10105.46875,-0.10042246,-0.96435612
10109.375,-0.13048762,-0.95823300
10113.28125,-0.12557456,-0.92572552
10117.1875,-0.07615685,-0.87463742
10121.09375,-0.09089485,-0.83169931
10125.0,-0.09493528,-0.81557655
10128.90625,-0.09155777,-0.81969464
10132.8125,-0.11003099,-0.82159829
10136.71875,-0.06158528,-0.80208319
10140.625,-0.09025983,-0.75368387
10144.53125,-0.08261254,-0.68054789
10148.4375,-0.05318832,-0.59885013
10152.34375,-0.02855712,-0.53097826
10156.25,-0.04652044,-0.48977572
10160.15625,-0.03238344,-0.46984205
10164.0625,-0.03796338,-0.45625013
10167.96875,-0.02400784,-0.43844500
10171.875,-0.04579353,-0.41651186
10175.78125,0.00313279,-0.39753881
10179.6875,-0.03174781,-0.38485995
10183.59375,-0.01096111,-0.37087899
10187.5,-0.04091521,-0.34483323
10191.40625,0.00729264,-0.30757606
10195.3125,-0.00777643,-0.27343887
10199.21875,0.01246215,-0.25666872
10203.125,-0.01917400,-0.25989172
10207.03125,0.00223929,-0.27525443
10210.9375,-0.01203561,-0.29132819
10214.84375,-0.00999624,-0.29759398
10218.75,0.00675886,-0.28676090
10222.65625,-0.01992672,-0.25772053
10226.5625,0.00032884,-0.21948855
10230.46875,0.01519849,-0.19053631
10234.375,0.01289077,-0.18738510
10238.28125,0.00453848,-0.21041076
10242.1875,-0.00441428,-0.24295332
10246.09375,-0.02030025,-0.26573274
10250.0,0.00906592,-0.27151912
10253.90625,-0.01686249,-0.26646581
10257.8125,0.00611649,-0.26054406
10261.71875,-0.01271856,-0.25907496
10265.625,-0.00860813,-0.26185188
10269.53125,-0.00886389,-0.26689565
10273.4375,-0.00149983,-0.27235055
10277.34375,-0.01438995,-0.27528536
10281.25,-0.00692365,-0.27258417
10285.15625,-0.01559472,-0.26509479
10289.0625,-0.00285198,-0.25866404
10292.96875,-0.00596034,-0.25849700
10296.875,-0.00429691,-0.26291120
10300.78125,-0.01997966,-0.26512834
10304.6875,-0.00577616,-0.26175031
10308.59375,-0.00933938,-0.25673220
10312.5,-0.00283529,-0.25574002
10316.40625,-0.00945061,-0.25961018
10320.3125,-0.02206388,-0.26597169
10324.21875,-0.00143085,-0.27452606
10328.125,-0.01863236,-0.28568375
10332.03125,-0.00705758,-0.29484677
10335.9375,-0.03595543,-0.29455614
10339.84375,-0.00461505,-0.28377557
10343.75,-0.00278343,-0.26882386
10347.65625,-0.02220947,-0.25370914
10351.5625,-0.00395691,-0.23724948
10355.46875,-0.01574022,-0.22264579
10359.375,0.00556300,-0.22211581
10363.28125,-0.00329923,-0.24505237
10367.1875,-0.02673773,-0.28309467
10371.09375,-0.01409886,-0.31207216
10375.0,-0.03327032,-0.31116611
10378.90625,-0.01573651,-0.28113911
10382.8125,-0.00527314,-0.24457018
10386.71875,-0.00189483,-0.22663324
10390.625,-0.01342525,-0.23389587
10394.53125,-0.01512686,-0.25150138
10398.4375,-0.01033073,-0.25888044
10402.34375,-0.01974840,-0.24707219
10406.25,-0.00849394,-0.22460435
10410.15625,0.00110007,-0.20980264
10414.0625,-0.01026990,-0.21534048
10417.96875,-0.00221296,-0.23656541
10421.875,-0.02229730,-0.25334954
10425.78125,-0.01884996,-0.24539281
10429.6875,-0.00880215,-0.20976725
10433.59375,0.01166024,-0.16506632
10437.5,-0.00072121,-0.13785440
10441.40625,0.00769942,-0.14455719
10445.3125,-0.01257670,-0.18299231
10449.21875,0.00187017,-0.23510376
10453.125,-0.03383865,-0.27607465
10457.03125,-0.00702660,-0.28647664
10460.9375,-0.03888310,-0.26339158
10464.84375,0.00147292,-0.22367117
10468.75,-0.00772683,-0.19414000
10472.65625,0.00055215,-0.19273089
10476.5625,-0.00880418,-0.21474589
10480.46875,-0.01983584,-0.23698376
10484.375,-0.02289095,-0.23833406
10488.28125,-0.01159531,-0.21961708
10492.1875,0.00424774,-0.20243420
10496.09375,-0.00641999,-0.20660326
10500.0,-0.02071381,-0.23073465
10503.90625,-0.02111872,-0.25667182
10507.8125,-0.02288329,-0.26938170
10511.71875,-0.01695433,-0.26890394
10515.625,-0.01556042,-0.26469558
10519.53125,-0.02040128,-0.26204762
10523.4375,-0.01451512,-0.25559041
10527.34375,-0.03386151,-0.23654620
10531.25,0.00422829,-0.20599213
10535.15625,-0.01183954,-0.17854628
10539.0625,0.00364450,-0.17101434
10542.96875,-0.01145574,-0.18776627
10546.875,-0.01742256,-0.21727873
10550.78125,-0.01406032,-0.24137878
10554.6875,-0.01248374,-0.24681462
10558.59375,-0.02327197,-0.23122710
10562.5,-0.01991122,-0.20449747
10566.40625,0.00783583,-0.18446167
10570.3125,-0.00403505,-0.18415341
10574.21875,-0.02179267,-0.20073658
10578.125,-0.00921436,-0.21969175
10582.03125,-0.02577612,-0.22864549
10585.9375,0.00134638,-0.22520940
10589.84375,-0.02799698,-0.21554106
10593.75,-0.00495823,-0.20995858
10597.65625,-0.01554505,-0.21757269
10601.5625,-0.01550912,-0.23950665
10605.46875,-0.02583744,-0.26579264
10609.375,-0.01919892,-0.28020284
10613.28125,-0.02537889,-0.26982167
10617.1875,-0.02666374,-0.23474510
10621.09375,-0.01067809,-0.19235216
10625.0,0.01413582,-0.16751873
10628.90625,-0.02055830,-0.17220932
10632.8125,-0.00435403,-0.19524735
10636.71875,-0.01669746,-0.21353470
10640.625,-0.02526222,-0.21207091
10644.53125,-0.00041949,-0.19476599
10648.4375,-0.00903956,-0.17883138
10652.34375,-0.00299092,-0.17932814
10656.25,-0.01546468,-0.19806561
10660.15625,-0.01515452,-0.22450992
10664.0625,-0.02688316,-0.24528068
10667.96875,-0.02027058,-0.25345725
10671.875,0.00327123,-0.24921554
10675.78125,-0.04474271,-0.23422968
10679.6875,-0.01249300,-0.21178347
10683.59375,0.00054616,-0.19078273
10687.5,-0.00761224,-0.18029447
10691.40625,-0.00667787,-0.17943077
10695.3125,-0.02059313,-0.17930013
10699.21875,-0.00375750,-0.17535116
10703.125,-0.00347676,-0.17391479
10707.03125,-0.01797787,-0.18639950
10710.9375,0.00270970,-0.21745765
10714.84375,-0.02348628,-0.25674057
10718.75,-0.04765459,-0.28461644
10722.65625,-0.01784386,-0.29100421
10726.5625,-0.01913216,-0.28537607
10730.46875,-0.02810016,-0.28366077
10734.375,-0.02342281,-0.28896648
10738.28125,-0.02443417,-0.28805363
10742.1875,-0.04007962,-0.26538315
10746.09375,-0.00312633,-0.22152126
10750.0,-0.01800292,-0.17843162
10753.90625,0.01434606,-0.16379492
10757.8125,-0.01834147,-0.18700582
10761.71875,-0.01341671,-0.22987141
10765.625,-0.03650240,-0.26178643
10769.53125,-0.00601374,-0.26445416
10773.4375,-0.03151316,-0.24350095
10777.34375,-0.01188470,-0.22076820
10781.25,-0.00726503,-0.21615960
10785.15625,-0.00925608,-0.23102562
10789.0625,-0.02858422,-0.24675035
10792.96875,-0.02825988,-0.24356721
10796.875,-0.00946588,-0.22130507
10800.78125,-0.00435213,-0.19784836
10804.6875,-0.00121957,-0.18826181
10808.59375,-0.01907113,-0.19149275
10812.5,-0.02004278,-0.19891666
10816.40625,0.00284548,-0.20892715
10820.3125,-0.02599934,-0.22727723
10824.21875,-0.00970388,-0.25596231
10828.125,-0.02269647,-0.28607321
10832.03125,-0.03615050,-0.30204505
10835.9375,-0.03248487,-0.29450941
10839.84375,-0.01358115,-0.27013776
10843.75,-0.01641759,-0.24668457
10847.65625,-0.01316703,-0.23812506
10851.5625,-0.02338563,-0.24633145
10855.46875,-0.02523748,-0.26490510
10859.375,-0.01578386,-0.28541744
10863.28125,-0.02146013,-0.29826584
10867.1875,-0.03865084,-0.29447815
10871.09375,-0.02455878,-0.27419975
10875.0,0.00110620,-0.25010210
10878.90625,-0.02858774,-0.23632337
10882.8125,-0.01277281,-0.23729387
10886.71875,-0.02042118,-0.24998906
10890.625,-0.01064938,-0.27004698
10894.53125,-0.03000152,-0.29147243
10898.4375,-0.03493947,-0.30600402
10902.34375,-0.01417989,-0.30718246
10906.25,-0.02806270,-0.29367954
10910.15625,-0.02006865,-0.26983967
10914.0625,-0.02344894,-0.24657552
10917.96875,-0.00807312,-0.23916444
10921.875,-0.01661462,-0.25725833
10925.78125,-0.01803297,-0.29400781
10929.6875,-0.03149985,-0.32685572
10933.59375,-0.03876664,-0.33313012
10937.5,-0.03026838,-0.30923149
10941.40625,-0.01101073,-0.27613351
10945.3125,-0.01492644,-0.26475367
10949.21875,-0.02103902,-0.29472426
10953.125,-0.04176880,-0.36561975
10957.03125,-0.06270058,-0.46288294
10960.9375,-0.05192664,-0.56187177
10964.84375,-0.07294073,-0.61729515
10968.75,-0.05838156,-0.55098945
10972.65625,-0.02957932,-0.26503998
10976.5625,0.06922175,0.31429622
10980.46875,0.23231606,1.19016826
10984.375,0.41936758,2.27937484
10988.28125,0.59693009,3.43165326
10992.1875,0.78920162,4.46447945
10996.09375,0.89374584,5.19944715
11000.0,0.96641892,5.49884367
11003.90625,0.91829401,5.29944086
11007.8125,0.82097381,4.63393497
11011.71875,0.64384180,3.62860966
11015.625,0.42843816,2.46978736
11019.53125,0.25549051,1.34579015
11023.4375,0.08961973,0.39093873
11027.34375,-0.02598706,-0.33910027
11031.25,-0.10546730,-0.85285920
11035.15625,-0.17018710,-1.18642890
11039.0625,-0.19855446,-1.37207341
11042.96875,-0.22428577,-1.43078887
11046.875,-0.19524316,-1.38405502
11050.78125,-0.18586922,-1.26391530
11054.6875,-0.15530513,-1.10876727
11058.59375,-0.12457585,-0.95057940
11062.5,-0.11102892,-0.80604190
11066.40625,-0.07967925,-0.67873323
11070.3125,-0.07554982,-0.56953132
11074.21875,-0.04135693,-0.48430040
11078.125,-0.04133837,-0.43029284
11082.03125,-0.04001967,-0.40608722
11085.9375,-0.03028457,-0.39794245
11089.84375,-0.04112622,-0.38784841
11093.75,-0.02988179,-0.36653268
11097.65625,-0.02609553,-0.34012973
11101.5625,-0.02002283,-0.32395458
11105.46875,-0.02105222,-0.32828206
11109.375,-0.02755216,-0.34823176
11113.28125,-0.02197309,-0.36541179
11117.1875,-0.04529113,-0.36062819
11121.09375,-0.01859819,-0.32979134
11125.0,-0.01299577,-0.28939518
11128.90625,-0.01021649,-0.26419872
11132.8125,-0.00674473,-0.26768366
11136.71875,-0.02207095,-0.29295430
11140.625,-0.02059439,-0.32025149
11144.53125,-0.02528968,-0.33293757
11148.4375,-0.02532346,-0.32917887
11152.34375,-0.01805541,-0.32101554
11156.25,-0.00346205,-0.32132253
11160.15625,-0.03968564,-0.33095366
11164.0625,-0.02539644,-0.34091052
11167.96875,-0.01614895,-0.34556869
11171.875,-0.03134003,-0.34856495
11175.78125,-0.01446355,-0.35609695
11179.6875,-0.03576266,-0.36811811
11183.59375,-0.02351246,-0.37664777
11187.5,-0.03906496,-0.37283644
11191.40625,-0.01605289,-0.35664618
11195.3125,-0.02867639,-0.33890170
11199.21875,-0.01157132,-0.33208296
11203.125,-0.02276510,-0.33838513
11207.03125,-0.03068318,-0.34808040
11210.9375,-0.02422620,-0.35064271
11214.84375,-0.01770034,-0.34510940
11218.75,-0.01931871,-0.33746979
11222.65625,-0.02220204,-0.33149871
11226.5625,-0.02328596,-0.32667673
11230.46875,-0.01895621,-0.32328609
11234.375,-0.00898055,-0.32395759
11238.28125,-0.02580104,-0.32864332
11242.1875,-0.01371959,-0.33201548
11246.09375,-0.03466395,-0.32941526
11250.0,-0.00783108,-0.32429352
11253.90625,-0.01442900,-0.32611510
11257.8125,-0.02284157,-0.33989012
11261.71875,-0.02248685,-0.36027142
11265.625,-0.03864266,-0.37696213
11269.53125,-0.01725083,-0.38340923
11273.4375,-0.02111976,-0.37860736
11277.34375,-0.03463462,-0.36411923
11281.25,-0.02309456,-0.34441906
11285.15625,-0.01075548,-0.32768053
11289.0625,-0.01523029,-0.31953263
11292.96875,-0.01374643,-0.31612289
11296.875,-0.02317769,-0.30781674
11300.78125,-0.00603319,-0.29043880
11304.6875,-0.01583204,-0.27173573
11308.59375,-0.00480324,-0.26667646
11312.5,0.01218756,-0.28379652
11316.40625,-0.03705896,-0.31377012
11320.3125,-0.01826911,-0.33471063
11324.21875,-0.01112355,-0.33056512
11328.125,-0.01873879,-0.30186048
11332.03125,0.00358427,-0.26129094
11335.9375,-0.01141561,-0.22451809
11339.84375,0.01409846,-0.20328072
11343.75,0.00479421,-0.19997345
11347.65625,0.00244309,-0.20534767
11351.5625,-0.00117130,-0.20447911
11355.46875,0.01078610,-0.18870856
11359.375,0.00830721,-0.16242814
11363.28125,0.02170588,-0.13842519
11367.1875,0.01112199,-0.12741289
11371.09375,0.02046063,-0.13135183
11375.0,0.01541527,-0.14379048
11378.90625,0.01735589,-0.15402833
11382.8125,-0.00165569,-0.15293971
11386.71875,0.02129169,-0.13836353
11390.625,0.03133861,-0.11373279
11394.53125,0.01979921,-0.08001424
11398.4375,0.02589689,-0.03259845
11402.34375,0.04956334,0.03350085
11406.25,0.06988537,0.12093297
11410.15625,0.06206099,0.23146933
11414.0625,0.10467553,0.36334389
11417.96875,0.13402565,0.50894374
11421.875,0.14433621,0.66131413
11425.78125,0.17768021,0.82094252
11429.6875,0.21053898,0.99277616
11433.59375,0.22966155,1.17923939
11437.5,0.27922413,1.37832475
11441.40625,0.31281024,1.58713269
11445.3125,0.32895035,1.80403054
11449.21875,0.38587460,2.02476406
11453.125,0.42527166,2.23903704
11457.03125,0.43551612,2.43417382
11460.9375,0.48959732,2.60135269
11464.84375,0.50387996,2.74022269
11468.75,0.51497525,2.86012793
11472.65625,0.53801799,2.97188282
11476.5625,0.55435491,3.07346129
11480.46875,0.58055305,3.14697337
11484.375,0.57222396,3.17369676
11488.28125,0.57152110,3.15076780
11492.1875,0.55387199,3.09135246
11496.09375,0.55649990,3.01116323
11500.0,0.52367300,2.91705418
11503.90625,0.50796455,2.80493641
11507.8125,0.49639118,2.66495872
11511.71875,0.46638507,2.49147797
11515.625,0.41830960,2.29092908
11519.53125,0.38753444,2.07821488
11523.4375,0.35599390,1.86408043
11527.34375,0.30972227,1.64611351
11531.25,0.28363049,1.41201532
11535.15625,0.24460723,1.15492892
11539.0625,0.18748397,0.88857514
11542.96875,0.13476813,0.64233446
11546.875,0.11000905,0.43559736
11550.78125,0.09226541,0.25996813
11554.6875,0.05639679,0.09067999
11558.59375,0.02648586,-0.08761865
11562.5,-0.00199893,-0.26851255
11566.40625,-0.04604026,-0.43303972
11570.3125,-0.05811806,-0.56833678
11574.21875,-0.06676765,-0.67796284
11578.125,-0.09166209,-0.77458227
11582.03125,-0.09642825,-0.86304599
11585.9375,-0.12806831,-0.93233752
11589.84375,-0.13702318,-0.96642613
11593.75,-0.10245367,-0.96197104
11597.65625,-0.11892845,-0.93140960
11601.5625,-0.12046179,-0.89166635
11605.46875,-0.10819285,-0.85715926
11609.375,-0.09557047,-0.83965516
11613.28125,-0.08304168,-0.84329712
11617.1875,-0.14043660,-0.85946840
11621.09375,-0.10076628,-0.87363297
11625.0,-0.08623776,-0.87396210
11628.90625,-0.11439479,-0.84890908
11632.8125,-0.10569357,-0.78804898
11636.71875,-0.07933290,-0.69573087
11640.625,-0.04767857,-0.59611988
11644.53125,-0.05235060,-0.51621759
11648.4375,-0.03149789,-0.46598595
11652.34375,-0.04797199,-0.43675813
11656.25,-0.03310749,-0.41635266
11660.15625,-0.02273959,-0.40356424
11664.0625,-0.03097341,-0.40717131
11667.96875,-0.03266980,-0.43126208
11671.875,-0.02738317,-0.46324849
11675.78125,-0.06995495,-0.47941160
11679.6875,-0.01908909,-0.46461818
11683.59375,-0.04290609,-0.42490071
11687.5,-0.02832662,-0.38034597
11691.40625,-0.00826563,-0.34845480
11695.3125,-0.01045710,-0.33206531
11699.21875,-0.03796650,-0.31995931
11703.125,-0.00656956,-0.30086714
11707.03125,-0.00296183,-0.27656794
11710.9375,-0.00884158,-0.25993755
11714.84375,-0.00233634,-0.26260009
11718.75,-0.00323358,-0.28406554
11722.65625,-0.03009013,-0.31065682
11726.5625,-0.01177550,-0.32723430
11730.46875,-0.01251498,-0.33034241
11734.375,-0.02329361,-0.32701629
11738.28125,-0.00903939,-0.32253176
11742.1875,-0.01805652,-0.31322590
11746.09375,-0.00907590,-0.29179147
11750.0,-0.01829991,-0.25896043
11753.90625,0.00482347,-0.22829378
11757.8125,0.01900832,-0.21571225
11761.71875,-0.01436352,-0.22427821
11765.625,-0.00687258,-0.24391103
11769.53125,-0.00659546,-0.26487130
11773.4375,-0.00176671,-0.28429419
11777.34375,-0.00907147,-0.30020916
11781.25,-0.03366670,-0.30839404
11785.15625,-0.00253653,-0.30776671
11789.0625,-0.00822505,-0.30216166
11792.96875,-0.01947421,-0.29487920
11796.875,-0.00887122,-0.28692278
11800.78125,-0.01245853,-0.28011200
11804.6875,-0.00341532,-0.27599588
11808.59375,-0.00998139,-0.27224162
11812.5,-0.00941411,-0.26484272
11816.40625,-0.00465178,-0.25361300
11820.3125,-0.00287368,-0.24228989
11824.21875,-0.00552024,-0.23393515
11828.125,0.00849161,-0.22855906
11832.03125,-0.00255809,-0.22426648
11835.9375,-0.01461040,-0.21985497
11839.84375,0.01553346,-0.21694838
11843.75,-0.00368505,-0.21765886
11847.65625,0.01381752,-0.21886422
11851.5625,-0.01767563,-0.21290362
11855.46875,0.00200626,-0.19812930
11859.375,0.01605419,-0.18609646
11863.28125,0.01076580,-0.19226460
11867.1875,-0.00329758,-0.21933857
11871.09375,-0.01132626,-0.25419885
11875.0,-0.01142791,-0.28146076
11878.90625,-0.00627371,-0.29626074
11882.8125,-0.01560764,-0.30313900
11886.71875,-0.01278753,-0.30647603
11890.625,-0.01565886,-0.30569354
11894.53125,-0.01559971,-0.29893765
11898.4375,-0.00059639,-0.28747657
11902.34375,-0.02458398,-0.27507609
11906.25,-0.00124531,-0.26561174
11910.15625,0.00517968,-0.26127505
11914.0625,-0.01431233,-0.26047149
11917.96875,-0.01381050,-0.25926262
11921.875,-0.00246259,-0.25709438
11925.78125,-0.00312423,-0.25754514
11929.6875,0.00893693,-0.26059538
11933.59375,-0.02631983,-0.25776708
11937.5,-0.00307559,-0.23946239
11941.40625,0.01475295,-0.20604740
11945.3125,-0.00097321,-0.16934305
11949.21875,0.01941125,-0.14476065
11953.125,0.02450740,-0.14123963
11957.03125,-0.00818616,-0.15580048
11960.9375,0.01655298,-0.17899892
11964.84375,0.00490023,-0.20493788
11968.75,-0.00137202,-0.23192170
11972.65625,-0.00445292,-0.25546068
11976.5625,-0.00360725,-0.26618087
11980.46875,-0.01178581,-0.25642502
11984.375,-0.00274114,-0.22898270
11988.28125,0.01071523,-0.19842446
11992.1875,0.01470514,-0.18189409
11996.09375,-0.00490694,-0.18847248
12000.0,0.00618985,-0.21618183
12003.90625,0.00568553,-0.25365806
12007.8125,-0.02831690,-0.28355947
12011.71875,0.00876506,-0.29096317
12015.625,-0.01452194,-0.27267742
12019.53125,-0.01336121,-0.23989491
12023.4375,0.01065327,-0.21345715
12027.34375,0.02083910,-0.21138181
12031.25,-0.01256919,-0.23441936
12035.15625,-0.00973910,-0.26591128
12039.0625,-0.01040882,-0.28780830
12042.96875,-0.00523427,-0.29346353
12046.875,-0.00338159,-0.28575495
12050.78125,-0.00864016,-0.26975232
12054.6875,-0.01814455,-0.25120932
12058.59375,0.02286034,-0.23744714
12062.5,-0.00434196,-0.23204520
12066.40625,-0.00737690,-0.22934309
12070.3125,0.01272347,-0.21964753
12074.21875,-0.00238443,-0.19983104
12078.125,0.01518179,-0.17778149
12082.03125,0.01169912,-0.16804482
12085.9375,0.01424999,-0.18166651
12089.84375,-0.00229557,-0.21694733
12093.75,0.01027980,-0.25837347
12097.65625,-0.01590092,-0.28475624
12101.5625,-0.01364393,-0.28269124
12105.46875,0.00381879,-0.25734842
12109.375,-0.00055242,-0.22997838
12113.28125,0.01942935,-0.22098491
12117.1875,0.00011648,-0.23306394
12121.09375,-0.01775362,-0.25185725
12125.0,0.00438658,-0.26356280
12128.90625,0.00022712,-0.26745352
12132.8125,0.00618040,-0.26860210
12136.71875,-0.00999193,-0.26511177
12140.625,-0.00518823,-0.25034937
12144.53125,0.00501839,-0.22638100
12148.4375,0.01330287,-0.20794994
12152.34375,0.00947034,-0.20913407
12156.25,0.01369939,-0.22734851
12160.15625,-0.01269187,-0.24372125
12164.0625,0.00233565,-0.24149852
12167.96875,0.00766795,-0.22309789
12171.875,0.01676966,-0.20678934
12175.78125,0.00848887,-0.20809911
12179.6875,0.00254074,-0.22699933
12183.59375,0.00412524,-0.25039384
12187.5,0.00461785,-0.26252177
12191.40625,-0.01134445,-0.25579786
12195.3125,0.00629638,-0.23848002
12199.21875,0.01575891,-0.23038305
12203.125,0.01474464,-0.24351630
12207.03125,-0.01605051,-0.26671287
12210.9375,0.00643700,-0.27504450
12214.84375,-0.01149965,-0.25557375
12218.75,0.01982355,-0.22209530
12222.65625,0.01328645,-0.20441858
12226.5625,0.01543617,-0.22223163
12230.46875,-0.00096204,-0.26750711
12234.375,-0.01608189,-0.31189445
12238.28125,-0.00526487,-0.33078715
12242.1875,0.00315113,-0.31942099
12246.09375,-0.01050611,-0.28990123
12250.0,-0.00446942,-0.26070255
12253.90625,0.02879285,-0.24775347
12257.8125,-0.00798530,-0.25496385
12261.71875,0.01454389,-0.26945084
12265.625,-0.01430670,-0.27088767
12269.53125,0.01121433,-0.24898411
12273.4375,0.01835879,-0.21247038
12277.34375,0.01378133,-0.18235128
12281.25,0.02300163,-0.17663580
12285.15625,0.03021435,-0.19698493
12289.0625,-0.00779705,-0.22603141
12292.96875,0.01207116,-0.24058448
12296.875,0.01526612,-0.23059852
12300.78125,0.01425541,-0.20487660
12304.6875,0.02837886,-0.18058644
12308.59375,0.01276238,-0.17013745
12312.5,0.02401857,-0.17599726
12316.40625,0.02360237,-0.19325133
12320.3125,0.01162443,-0.21457358
12324.21875,0.01655679,-0.23411305
12328.125,0.00092635,-0.24922065
12332.03125,0.01401331,-0.25954977
12335.9375,0.01265074,-0.26431751
12339.84375,0.00870763,-0.26051086
12343.75,0.00507415,-0.24490747
12347.65625,0.02238515,-0.21861587
12351.5625,0.00956101,-0.18969546
12355.46875,0.03834480,-0.17102481
12359.375,0.02683601,-0.17267272
12363.28125,0.02037819,-0.19347687
12367.1875,0.00441163,-0.22189336
12371.09375,0.02237728,-0.24624677
12375.0,0.01331898,-0.26126295
12378.90625,0.01279763,-0.26596424
12382.8125,-0.00127909,-0.26249960
12386.71875,0.01894866,-0.25874931
12390.625,0.01508178,-0.26490280
12394.53125,0.00665849,-0.28310376
12398.4375,0.00426955,-0.30360255
12402.34375,0.00917197,-0.31290650
12406.25,-0.00329937,-0.30423442
12410.15625,0.00606267,-0.28141400
12414.0625,0.02933024,-0.25510043
12417.96875,0.00510648,-0.23494060
12421.875,0.04070850,-0.22407357
12425.78125,-0.00297299,-0.21986483
12429.6875,0.02623580,-0.21922565
12433.59375,0.02618822,-0.22257973
12437.5,0.02692069,-0.23131433
12441.40625,0.01909110,-0.24389286
12445.3125,-0.00912214,-0.26114392
12449.21875,0.01918077,-0.29596192
12453.125,0.00948831,-0.36789662
12457.03125,-0.01616678,-0.47934335
12460.9375,-0.06023527,-0.59697324
12464.84375,-0.02836576,-0.65426350
12468.75,-0.04192110,-0.56582505
12472.65625,0.01253242,-0.24700257
12476.5625,0.12651791,0.35799783
12480.46875,0.27476570,1.24770713
12484.375,0.44947183,2.34751678
12488.28125,0.63670301,3.50963998
12492.1875,0.84074914,4.53572035
12496.09375,0.95628077,5.22963095
12500.0,0.98464632,5.46112251
12503.90625,0.93356627,5.20238304
12507.8125,0.83196449,4.52265072
12511.71875,0.64439017,3.55577111
12515.625,0.49259353,2.45917106
12519.53125,0.29426721,1.37730634
12523.4375,0.12616682,0.41888577
12527.34375,0.01240708,-0.35057935
12531.25,-0.09968410,-0.90585589
12535.15625,-0.13562883,-1.25458801
12539.0625,-0.17162061,-1.42773497
12542.96875,-0.19184023,-1.46802568
12546.875,-0.17434867,-1.41925061
12550.78125,-0.14600258,-1.31831372
12554.6875,-0.14443931,-1.19032025
12558.59375,-0.10380989,-1.04939127
12562.5,-0.09327785,-0.90391946
12566.40625,-0.04994272,-0.75978917
12570.3125,-0.05374322,-0.62118918
12574.21875,-0.00830237,-0.49336129
12578.125,0.00276282,-0.38536853
12582.03125,0.01297980,-0.30818594
12585.9375,0.03016943,-0.26908371
12589.84375,0.01393256,-0.26670754
12593.75,0.01535708,-0.29093701
12597.65625,0.02239399,-0.32777628
12601.5625,0.01017820,-0.36402255
12605.46875,-0.00669343,-0.38915211
12609.375,0.00161337,-0.39713645
12613.28125,0.00177940,-0.38788617
12617.1875,0.01890292,-0.36574516
12621.09375,0.00895571,-0.33654401
12625.0,0.01195389,-0.30636248
12628.90625,0.02355098,-0.28178948
12632.8125,0.01909973,-0.26922688
12636.71875,0.04097706,-0.27189851
12640.625,0.01635814,-0.28630969
12644.53125,0.00568420,-0.30308357
12648.4375,0.03235106,-0.31304643
12652.34375,0.01216726,-0.31204686
12656.25,0.01636593,-0.30203888
12660.15625,0.02926796,-0.29086983
12664.0625,0.01953801,-0.28839913
12667.96875,0.02584875,-0.29889330
12671.875,0.01006395,-0.31765530
12675.78125,0.01406482,-0.33539560
12679.6875,0.02542240,-0.34383705
12683.59375,0.01137010,-0.33754176
12687.5,0.01315530,-0.31582868
12691.40625,0.01752616,-0.28684172
12695.3125,0.03727765,-0.26594520
12699.21875,0.03595159,-0.26440176
12703.125,0.02109643,-0.27925211
12707.03125,0.01923729,-0.29656008
12710.9375,0.01010594,-0.30475160
12714.84375,0.03450746,-0.30402580
12718.75,0.02365982,-0.30299976
12722.65625,0.03015558,-0.30720559
12726.5625,0.00196673,-0.31250224
12730.46875,0.02866375,-0.31057164
12734.375,0.02092432,-0.29953414
12738.28125,0.02827022,-0.28770739
12742.1875,0.03173269,-0.28643057
12746.09375,0.01949365,-0.29877523
12750.0,0.01504684,-0.31617400
12753.90625,0.02786364,-0.32710975
12757.8125,0.00512645,-0.32775709
12761.71875,0.03692987,-0.32241371
12765.625,0.02403466,-0.31409001
12769.53125,0.00664761,-0.29911670
12773.4375,0.03569349,-0.27513698
12777.34375,0.03197348,-0.25062230
12781.25,0.03905835,-0.24068783
12785.15625,0.03292473,-0.25405318
12789.0625,0.02712433,-0.28475308
12792.96875,0.02106778,-0.31468698
12796.875,0.00921098,-0.32649502
12800.78125,0.03148976,-0.31800741
12804.6875,0.03011129,-0.30289611
12808.59375,0.01855521,-0.29494095
12812.5,0.03150085,-0.29429203
12816.40625,0.01448640,-0.29162931
12820.3125,0.03890318,-0.28267434
12824.21875,0.02906137,-0.27307498
12828.125,0.03134343,-0.26856002
12832.03125,0.02090594,-0.26657864
12835.9375,0.04240948,-0.26107070
12839.84375,0.03442496,-0.25085366
12843.75,0.02707176,-0.24020538
12847.65625,0.04017577,-0.23426998
12851.5625,0.03460813,-0.23486474
12855.46875,0.05124693,-0.23741515
12859.375,0.02210340,-0.23230191
12863.28125,0.02825446,-0.21406212
12867.1875,0.06818061,-0.18864048
12871.09375,0.03990108,-0.16577943
12875.0,0.05408236,-0.14623101
12878.90625,0.04602310,-0.12371297
12882.8125,0.05681287,-0.09754852
12886.71875,0.09000713,-0.07448697
12890.625,0.04017774,-0.05659873
12894.53125,0.07736541,-0.03492889
12898.4375,0.08014728,0.00263432
12902.34375,0.09063026,0.06303289
12906.25,0.09388524,0.14710358
12910.15625,0.10772629,0.25035772
12914.0625,0.15418866,0.36542299
12917.96875,0.16550978,0.48985824
12921.875,0.16958475,0.63121146
12925.78125,0.21149890,0.79894489
12929.6875,0.22550964,0.99115813
12933.59375,0.30852580,1.19460392
12937.5,0.31279400,1.39972806
12941.40625,0.32210198,1.60921097
12945.3125,0.39103869,1.82644546
12949.21875,0.42341730,2.04248834
12953.125,0.45470965,2.24169350
12957.03125,0.48647296,2.41676712
12960.9375,0.50855863,2.57547045
12964.84375,0.54056722,2.73432946
12968.75,0.54232967,2.90209389
12972.65625,0.60170138,3.06397104
12976.5625,0.62458158,3.18547082
12980.46875,0.61565334,3.23739338
12984.375,0.62075108,3.21693158
12988.28125,0.59508032,3.14637804
12992.1875,0.59897906,3.05756450
12996.09375,0.57430989,2.97597194
13000.0,0.55774963,2.90821004
13003.90625,0.55736488,2.83690238
13007.8125,0.54101139,2.73106003
13011.71875,0.49242219,2.56725168
13015.625,0.48912224,2.34470510
13019.53125,0.43260911,2.08647442
13023.4375,0.35693684,1.82683265
13027.34375,0.33930337,1.58797753
13031.25,0.31922930,1.36501038
13035.15625,0.26467693,1.13779485
13039.0625,0.23503031,0.89613074
13042.96875,0.16301402,0.65011650
13046.875,0.16098392,0.41993192
13050.78125,0.09563359,0.21936606
13054.6875,0.08064530,0.04591002
13058.59375,0.07135884,-0.11602000
13062.5,0.01890746,-0.28001353
13066.40625,-0.00954154,-0.44555247
13070.3125,-0.01914014,-0.60078919
13074.21875,-0.05677129,-0.73304224
13078.125,-0.07347835,-0.83618063
13082.03125,-0.06245191,-0.91140455
13085.9375,-0.10150215,-0.96183980
13089.84375,-0.10506865,-0.98858184
13093.75,-0.07296035,-0.99377829
13097.65625,-0.11102346,-0.98448831
13101.5625,-0.09040092,-0.97204381
13105.46875,-0.08046555,-0.96585125
13109.375,-0.09111663,-0.96263248
13113.28125,-0.09862829,-0.94436532
13117.1875,-0.07039507,-0.89529413
13121.09375,-0.08537196,-0.82193917
13125.0,-0.04194594,-0.75179255
13128.90625,-0.03378217,-0.70916742
13132.8125,-0.06584121,-0.69327289
13136.71875,-0.03947653,-0.68335479
13140.625,-0.04817344,-0.66268718
13144.53125,-0.02859722,-0.63144433
13148.4375,-0.03006054,-0.59871495
13152.34375,-0.03307708,-0.56970137
13156.25,-0.00974574,-0.54212052
13160.15625,-0.03102902,-0.51120907
13164.0625,-0.00302383,-0.47606137
13167.96875,-0.00475556,-0.44093454
13171.875,-0.00886900,-0.41089424
13175.78125,0.01446691,-0.38743404
13179.6875,0.00669477,-0.36781681
13183.59375,0.00426702,-0.34814394
13187.5,0.00837751,-0.32974142
13191.40625,0.00929405,-0.32340044
13195.3125,0.02459909,-0.34246391
13199.21875,0.01099206,-0.38642091
13203.125,-0.01951258,-0.43298531
13207.03125,-0.02127553,-0.45324123
13210.9375,0.00407031,-0.43643829
13214.84375,0.00209862,-0.39647660
13218.75,0.01433765,-0.35546079
13222.65625,0.00158001,-0.32603440
13226.5625,0.00843875,-0.30853459
13230.46875,0.03424643,-0.29717723
13234.375,0.00234902,-0.28456038
13238.28125,0.02876892,-0.26539585
13242.1875,0.01713501,-0.24165070
13246.09375,0.03434573,-0.22264367
13250.0,0.02949922,-0.21742745
13253.90625,0.01945277,-0.22754812
13257.8125,0.03176717,-0.24671333
13261.71875,0.02146259,-0.26482821
13265.625,0.00522200,-0.27314925
13269.53125,0.02474269,-0.26966345
13273.4375,0.02482463,-0.26007459
13277.34375,0.01735937,-0.25273073
13281.25,0.02186296,-0.25428399
13285.15625,0.01350132,-0.26819029
13289.0625,0.02262998,-0.29059377
13292.96875,0.01536938,-0.30612233
13296.875,0.00005449,-0.29551446
13300.78125,0.01537411,-0.25520083
13304.6875,0.03774300,-0.20733590
13308.59375,0.02846153,-0.18394122
13312.5,0.03655599,-0.19971620
13316.40625,0.01842021,-0.24031100
13320.3125,0.01344736,-0.27445841
13324.21875,0.00546295,-0.27826065
13328.125,0.02005061,-0.25282344
13332.03125,0.03046501,-0.22131677
13335.9375,0.02794332,-0.20819841
13339.84375,0.02696487,-0.21956263
13343.75,0.01184911,-0.24140207
13347.65625,0.01920922,-0.25461590
13351.5625,0.00852003,-0.25187010
13355.46875,0.02773252,-0.24244025
13359.375,0.02492401,-0.24210976
13363.28125,0.00996237,-0.25780773
13367.1875,0.01908387,-0.28121015
13371.09375,-0.00979183,-0.29655084
13375.0,0.02588389,-0.29420137
13378.90625,0.00746838,-0.27705935
13382.8125,0.01280961,-0.25557825
13386.71875,0.02443895,-0.23753804
13390.625,0.02522547,-0.22072546
13394.53125,0.00891357,-0.19636118
13398.4375,0.03608882,-0.16304973
13402.34375,0.04117174,-0.13434340
13406.25,0.03422309,-0.12770900
13410.15625,0.03249102,-0.14871332
13414.0625,0.01731874,-0.18848753
13417.96875,0.03331234,-0.23131581
13421.875,0.00591199,-0.26121008
13425.78125,0.00302881,-0.26801392
13429.6875,0.01827560,-0.25492147
13433.59375,0.01932763,-0.23866497
13437.5,0.00577056,-0.23778802
13441.40625,0.03751440,-0.25740489
13445.3125,-0.00160819,-0.28199711
13449.21875,-0.00898736,-0.28616485
13453.125,0.01096562,-0.25931206
13457.03125,0.03545373,-0.21755394
13460.9375,0.02464196,-0.18684584
13464.84375,0.01972338,-0.17924353
13468.75,0.01710964,-0.18921392
13472.65625,0.02212953,-0.20628616
13476.5625,0.01912467,-0.22459710
13480.46875,0.01637402,-0.24187720
13484.375,0.01358947,-0.25445411
13488.28125,-0.00433818,-0.25681606
13492.1875,0.02654648,-0.24659929
13496.09375,0.00961056,-0.22809792
13500.0,0.01922401,-0.21007675
13503.90625,0.02051082,-0.20016895
13507.8125,0.02696517,-0.19925977
13511.71875,0.00489613,-0.20127477
13515.625,0.02422201,-0.20134589
13519.53125,0.02445932,-0.20261660
13523.4375,0.01281113,-0.21180904
13527.34375,0.01341062,-0.23040685
13531.25,0.01572044,-0.25215381
13535.15625,0.00151170,-0.26709440
13539.0625,0.00824407,-0.26870263
13542.96875,-0.00004294,-0.25994354
13546.875,0.02781496,-0.25082064
13550.78125,0.00402036,-0.24744371
13554.6875,0.00042130,-0.24664812
13558.59375,0.01507245,-0.24369235
