rel_ms,value_mv,normalized
0.0,0.00414701,-0.19559148
3.90625,0.00998214,-0.28794494
7.8125,0.00421068,-0.34539834
11.71875,-0.01526975,-0.36149707
15.625,0.01135509,-0.34995267
19.53125,0.00596999,-0.33159736
23.4375,-0.00570729,-0.31915435
27.34375,0.00783218,-0.31383720
31.25,0.00535622,-0.31334093
35.15625,0.00463349,-0.31804752
39.0625,0.00156748,-0.32982093
42.96875,0.00790943,-0.34693283
46.875,-0.00736616,-0.36103109
50.78125,-0.00036127,-0.36263734
54.6875,-0.00406949,-0.35265449
58.59375,0.00902433,-0.34510747
62.5,0.00243701,-0.35323802
66.40625,-0.00142705,-0.37302867
70.3125,-0.00717846,-0.38456202
74.21875,-0.00075993,-0.37151831
78.125,0.00254592,-0.33907005
82.03125,-0.00073727,-0.31382704
85.9375,0.01822038,-0.32460395
89.84375,0.01489386,-0.37541085
93.75,-0.02959934,-0.43505335
97.65625,-0.01961222,-0.46140486
101.5625,0.00107990,-0.43848574
105.46875,-0.00176802,-0.38558251
109.375,0.00598295,-0.33524561
113.28125,0.00614795,-0.30913714
117.1875,0.02907486,-0.30734137
121.09375,-0.00956288,-0.31208816
125.0,-0.00062945,-0.30695191
128.90625,0.02853535,-0.29649335
132.8125,0.01190266,-0.30069745
136.71875,0.01221897,-0.32943207
140.625,-0.00178605,-0.36990881
144.53125,-0.01527522,-0.40061706
148.4375,0.00663074,-0.41215682
152.34375,0.00604864,-0.41114810
156.25,-0.00986862,-0.40776438
160.15625,-0.00322017,-0.40606430
164.0625,0.00423279,-0.40459582
167.96875,-0.00612114,-0.39984888
171.875,0.00415502,-0.38953844
175.78125,0.00659822,-0.37509099
179.6875,0.00599743,-0.35975221
183.59375,-0.00038735,-0.34571281
187.5,0.01293067,-0.33589196
191.40625,0.01661702,-0.33488879
195.3125,0.00989030,-0.34359342
199.21875,-0.00366177,-0.35576236
203.125,0.01505346,-0.36369506
207.03125,0.00037276,-0.36518750
210.9375,0.01705613,-0.36364275
214.84375,-0.00623932,-0.36466244
218.75,0.01771140,-0.37278733
222.65625,0.00661245,-0.38687882
226.5625,-0.00801661,-0.39868084
230.46875,0.00331648,-0.40161601
234.375,0.00784713,-0.40023544
238.28125,0.01058576,-0.40420333
242.1875,-0.00435991,-0.41371435
246.09375,-0.00574833,-0.41799191
250.0,0.01004868,-0.40908366
253.90625,0.00216591,-0.39207858
257.8125,0.01070591,-0.37971914
261.71875,0.01710673,-0.37844086
265.625,-0.01168060,-0.38228250
269.53125,0.01126957,-0.38247970
273.4375,0.02302447,-0.37820333
277.34375,0.00486991,-0.37250534
281.25,-0.00117821,-0.36512420
285.15625,0.01768972,-0.35757214
289.0625,0.01181547,-0.35877150
292.96875,0.01963643,-0.37634611
296.875,0.00485596,-0.40363130
300.78125,-0.00866858,-0.42209825
304.6875,0.00791140,-0.42004955
308.59375,0.00400610,-0.40629923
312.5,0.01879480,-0.40098399
316.40625,0.01196614,-0.41224265
320.3125,-0.00974969,-0.42627388
324.21875,-0.00430319,-0.42453220
328.125,0.02092270,-0.40620396
332.03125,0.01884059,-0.38569918
335.9375,0.00349133,-0.37205824
339.84375,0.01182528,-0.36123425
343.75,0.01808172,-0.34686494
347.65625,0.01955959,-0.32963276
351.5625,0.02605031,-0.31525850
355.46875,0.02069822,-0.30800033
359.375,0.01915633,-0.30744886
363.28125,0.02054928,-0.30930182
367.1875,0.04045946,-0.30632666
371.09375,0.00575239,-0.29004756
375.0,0.03693462,-0.25631252
378.90625,0.04567168,-0.20788488
382.8125,0.03560761,-0.14790393
386.71875,0.06475091,-0.07516845
390.625,0.06137772,0.01034501
394.53125,0.08808658,0.10134258
398.4375,0.08454902,0.18462580
402.34375,0.10181512,0.24647681
406.25,0.11518112,0.27914798
410.15625,0.11061475,0.28781927
414.0625,0.09937832,0.28925058
417.96875,0.09377304,0.29591557
421.875,0.13312128,0.30271465
425.78125,0.10895663,0.29647565
429.6875,0.09842482,0.27413672
433.59375,0.10320672,0.24203300
437.5,0.09264868,0.20167354
441.40625,0.09766736,0.14712510
445.3125,0.07974017,0.07692993
449.21875,0.07114997,0.00165315
453.125,0.05415762,-0.06403789
457.03125,0.06049541,-0.11499526
460.9375,0.03518394,-0.15986875
464.84375,0.04906495,-0.21241868
468.75,0.05368464,-0.27532661
472.65625,0.01228805,-0.33079404
476.5625,-0.00298480,-0.35625422
480.46875,0.03081501,-0.35375682
484.375,0.05148071,-0.35121986
488.28125,0.00698113,-0.36992687
492.1875,0.00256232,-0.40454903
496.09375,0.02361302,-0.43686688
500.0,0.00574146,-0.45374554
503.90625,0.00927843,-0.45103359
507.8125,0.01086865,-0.43391669
511.71875,0.02125116,-0.41590825
515.625,0.00991136,-0.41040489
519.53125,0.01807017,-0.42133716
523.4375,0.01258960,-0.44236332
527.34375,0.00448147,-0.46362439
531.25,0.01046340,-0.47963080
535.15625,0.00201725,-0.49217990
539.0625,0.01145727,-0.50618958
542.96875,-0.00616540,-0.52500671
546.875,-0.01267016,-0.55309415
550.78125,0.00824209,-0.59880978
554.6875,-0.02036717,-0.66175741
558.59375,-0.02651441,-0.71009606
562.5,-0.01296952,-0.67262834
566.40625,0.00607532,-0.45826897
570.3125,0.07169211,0.00747517
574.21875,0.18091398,0.75125700
578.125,0.31625962,1.74262059
582.03125,0.46111652,2.90153289
585.9375,0.65484005,4.10860920
589.84375,0.79385322,5.21950912
593.75,0.90919006,6.08868742
597.65625,0.97931284,6.59376812
601.5625,0.99103165,6.65411520
605.46875,0.95782727,6.24961758
609.375,0.81293386,5.43695736
613.28125,0.68016595,4.34324694
617.1875,0.48571768,3.12667418
621.09375,0.34483191,1.92611349
625.0,0.20380262,0.83551300
628.90625,0.06192340,-0.08797682
632.8125,-0.04356433,-0.80947787
636.71875,-0.10639426,-1.31804955
640.625,-0.14839518,-1.63280511
644.53125,-0.17409691,-1.79453051
648.4375,-0.16495766,-1.84564996
652.34375,-0.17790881,-1.81412518
656.25,-0.16862129,-1.71261847
660.15625,-0.13748699,-1.55124128
664.0625,-0.10846005,-1.34997618
667.96875,-0.07823187,-1.13968086
671.875,-0.05450139,-0.95226645
675.78125,-0.03068620,-0.80676496
679.6875,-0.03596974,-0.70162278
683.59375,0.00657943,-0.62084818
687.5,-0.00140921,-0.54826719
691.40625,-0.00259159,-0.47876129
695.3125,0.02308370,-0.42035717
699.21875,0.03382439,-0.38347715
703.125,0.02569660,-0.36502242
707.03125,0.02303652,-0.34888986
710.9375,0.01104941,-0.32752183
714.84375,0.05779902,-0.31556672
718.75,0.03507693,-0.33192122
722.65625,0.01214762,-0.37210926
726.5625,0.01794278,-0.40844470
730.46875,0.03002759,-0.41442481
734.375,0.01224631,-0.38297436
738.28125,0.03510569,-0.32838929
742.1875,0.03003744,-0.27804893
746.09375,0.05303592,-0.25574377
750.0,0.05297570,-0.26304302
753.90625,0.01236219,-0.27623168
757.8125,0.04924688,-0.26628691
761.71875,0.03358729,-0.22242548
765.625,0.07098264,-0.15558395
769.53125,0.06478877,-0.08309653
773.4375,0.07490216,-0.01398039
777.34375,0.06154113,0.05049502
781.25,0.10271756,0.10632614
785.15625,0.11191845,0.14586821
789.0625,0.08223726,0.16948660
792.96875,0.10724230,0.19051668
796.875,0.10283375,0.22608742
800.78125,0.11913223,0.28558755
804.6875,0.11304396,0.36466202
808.59375,0.15971884,0.44811225
812.5,0.13497169,0.52259690
816.40625,0.15247981,0.58631819
820.3125,0.17155191,0.64478350
824.21875,0.16725712,0.70248109
828.125,0.18155916,0.76095855
832.03125,0.18689258,0.81992382
835.9375,0.20101261,0.87849319
839.84375,0.19716690,0.93746716
843.75,0.21410735,0.99987143
847.65625,0.22449164,1.06777811
851.5625,0.22995643,1.13855374
855.46875,0.24092308,1.20437014
859.375,0.24222788,1.25599408
863.28125,0.25944042,1.28837168
867.1875,0.25027791,1.30300093
871.09375,0.25532207,1.30498707
875.0,0.25080645,1.29942012
878.90625,0.25328124,1.29137623
882.8125,0.24422467,1.28605783
886.71875,0.26440960,1.28579080
890.625,0.24226166,1.28757226
894.53125,0.24383952,1.28326130
898.4375,0.25298893,1.26213706
902.34375,0.24851844,1.21875846
906.25,0.23307826,1.16124833
910.15625,0.20709291,1.10576391
914.0625,0.22914441,1.05953431
917.96875,0.21939997,1.01477110
921.875,0.19102384,0.96024734
925.78125,0.20849386,0.89324886
929.6875,0.18179591,0.82072860
933.59375,0.16742621,0.75241804
937.5,0.17268158,0.69187731
941.40625,0.15992995,0.63485062
945.3125,0.15506922,0.57651818
949.21875,0.12403762,0.51485914
953.125,0.15589392,0.44753778
957.03125,0.11798937,0.37479353
960.9375,0.09810731,0.30496532
964.84375,0.11570555,0.24775527
968.75,0.09609075,0.20275795
972.65625,0.09671894,0.16083346
976.5625,0.08164375,0.11479291
980.46875,0.07834226,0.06497468
984.375,0.07579886,0.01585001
988.28125,0.05813289,-0.02999666
992.1875,0.06993008,-0.07288630
996.09375,0.05127988,-0.11135912
1000.0,0.04204422,-0.14078121
1003.90625,0.04937866,-0.16032304
1007.8125,0.05016136,-0.17762353
1011.71875,0.03880983,-0.20250353
1015.625,0.02829469,-0.23871104
1019.53125,0.04349257,-0.28198457
1023.4375,0.01264080,-0.32148087
1027.34375,0.01937862,-0.34434804
1031.25,0.03045772,-0.34411183
1035.15625,0.01211165,-0.32588986
1039.0625,0.02744483,-0.30427018
1042.96875,0.02529704,-0.29575643
1046.875,0.03574834,-0.30791962
1050.78125,0.01313667,-0.33259615
1054.6875,0.01587910,-0.35158369
1058.59375,0.02677311,-0.35067692
1062.5,-0.00723623,-0.33071095
1066.40625,0.05901622,-0.30767894
1070.3125,0.01306302,-0.29947248
1074.21875,0.01237953,-0.31083497
1078.125,0.03121230,-0.33208802
1082.03125,0.02018455,-0.34786773
1085.9375,-0.00087122,-0.34702829
1089.84375,0.02785410,-0.33205637
1093.75,0.03046909,-0.31759027
1097.65625,0.01469896,-0.31438547
1101.5625,0.01662935,-0.31922600
1105.46875,0.02576396,-0.32290775
1109.375,0.00896113,-0.32274693
1113.28125,0.02507008,-0.32586759
1117.1875,0.02215070,-0.34103444
1121.09375,0.01161492,-0.36533943
1125.0,0.00296797,-0.38095096
1128.90625,0.01692810,-0.36995667
1132.8125,0.00909478,-0.33303395
1136.71875,0.03158289,-0.29135501
1140.625,0.02126226,-0.26887736
1144.53125,0.02888623,-0.27233782
1148.4375,0.02108507,-0.28769067
1152.34375,0.02259295,-0.29432410
1156.25,0.01001062,-0.28342289
1160.15625,0.02739144,-0.26570198
1164.0625,0.04075917,-0.26109332
1167.96875,0.01559403,-0.27899730
1171.875,0.01216397,-0.31020021
1175.78125,0.01734965,-0.33711809
1179.6875,0.01343417,-0.34673539
1183.59375,0.01075698,-0.33522606
1187.5,0.02079760,-0.30786678
1191.40625,0.01561215,-0.27659300
1195.3125,0.03633285,-0.25340223
1199.21875,0.01903129,-0.24299955
1203.125,0.02287763,-0.24197136
1207.03125,0.03037606,-0.24526030
1210.9375,0.01530314,-0.25241753
1214.84375,0.03611275,-0.26715049
1218.75,0.01123858,-0.29092592
1222.65625,0.00908927,-0.31828845
1226.5625,0.01435159,-0.34009543
1230.46875,0.01732707,-0.34981227
1234.375,0.00184404,-0.34548736
1238.28125,0.01819421,-0.32907408
1242.1875,-0.00143971,-0.30706114
1246.09375,0.03522987,-0.29006347
1250.0,0.01750563,-0.28701171
1253.90625,0.01072679,-0.29796651
1257.8125,0.00748222,-0.31532344
1261.71875,0.01372042,-0.33187133
1265.625,0.01560724,-0.34383780
1269.53125,0.00569999,-0.34684074
1273.4375,0.00714582,-0.33438295
1277.34375,0.01588582,-0.30355862
1281.25,0.01183038,-0.26215059
1285.15625,0.02929753,-0.22849946
1289.0625,0.03162793,-0.22011042
1292.96875,0.01811158,-0.23841293
1296.875,0.02354768,-0.26555890
1300.78125,0.00178671,-0.27880508
1304.6875,0.02540180,-0.26924080
1308.59375,0.01732894,-0.24823819
1312.5,0.02345444,-0.23749299
1316.40625,0.03678452,-0.25075686
1320.3125,-0.00984889,-0.28176668
1324.21875,0.02059328,-0.31063494
1328.125,0.00421231,-0.32234502
1332.03125,0.02444728,-0.31617600
1335.9375,0.00151970,-0.29946595
1339.84375,0.01127254,-0.27958319
1343.75,0.01958738,-0.26310280
1347.65625,0.02445327,-0.25584719
1351.5625,0.01792463,-0.25887719
1355.46875,0.00744844,-0.26713359
1359.375,0.01025468,-0.27521539
1363.28125,0.02744513,-0.28123212
1367.1875,0.01669850,-0.28185222
1371.09375,-0.00350852,-0.27025837
1375.0,0.02675335,-0.24640596
1378.90625,0.02155588,-0.22389582
1382.8125,0.02697277,-0.21861576
1386.71875,0.01238252,-0.23255874
1390.625,0.02628957,-0.25240728
1394.53125,0.00354795,-0.26233196
1398.4375,0.02304914,-0.25714263
1402.34375,0.01025239,-0.24462716
1406.25,0.02415637,-0.23644881
1410.15625,0.02805847,-0.23684134
1414.0625,0.00708486,-0.24002260
1417.96875,0.01522738,-0.23895265
1421.875,0.01623438,-0.23473389
1425.78125,0.02996711,-0.23347278
1429.6875,0.02414144,-0.23469236
1433.59375,0.00090644,-0.22999500
1437.5,0.02095151,-0.21705425
1441.40625,0.02432314,-0.20819324
1445.3125,0.04078902,-0.21719980
1449.21875,-0.00492574,-0.24212164
1453.125,0.00870795,-0.26930398
1457.03125,0.03106419,-0.28848559
1460.9375,-0.00127812,-0.29509670
1464.84375,0.00050763,-0.28659794
1468.75,0.02102401,-0.26666045
1472.65625,0.02695724,-0.24514443
1476.5625,0.00662892,-0.22788833
1480.46875,0.02105081,-0.21366666
1484.375,0.01588840,-0.20278808
1488.28125,0.03262504,-0.20113045
1492.1875,0.01429639,-0.21354024
1496.09375,0.02611161,-0.23640381
1500.0,0.00330472,-0.25742942
1503.90625,0.01183655,-0.26357558
1507.8125,0.01280707,-0.25211781
1511.71875,0.02754872,-0.23353018
1515.625,0.02074617,-0.22081231
1519.53125,0.00468064,-0.21811281
1523.4375,0.02179563,-0.22294688
1527.34375,0.02276943,-0.23487337
1531.25,0.01209143,-0.25553772
1535.15625,0.01024805,-0.28159577
1539.0625,0.01092268,-0.30228016
1542.96875,-0.00718377,-0.30679181
1546.875,0.01532837,-0.29543474
1550.78125,0.01578522,-0.28119543
1554.6875,0.00249029,-0.27774307
1558.59375,0.02169184,-0.28688717
1562.5,-0.00378774,-0.29782414
1566.40625,0.00597101,-0.29774368
1570.3125,0.00679456,-0.28362283
1574.21875,0.03625126,-0.26225990
1578.125,-0.00688558,-0.24025530
1582.03125,0.01895922,-0.22107793
1585.9375,0.02341570,-0.21166886
1589.84375,0.01654504,-0.22240940
1593.75,0.02609568,-0.25625518
1597.65625,-0.00021766,-0.30107772
1601.5625,-0.01564715,-0.33669746
1605.46875,0.02081809,-0.35002542
1609.375,-0.00283377,-0.34067997
1613.28125,0.00749882,-0.31487224
1617.1875,-0.00283152,-0.28165427
1621.09375,0.02384133,-0.25317076
1625.0,0.02149321,-0.23925079
1628.90625,0.00236840,-0.24049467
1632.8125,0.02174840,-0.25062731
1636.71875,0.01225876,-0.26313454
1640.625,0.00902729,-0.27264476
1644.53125,0.01128507,-0.27477807
1648.4375,0.00805880,-0.26922756
1652.34375,0.01776718,-0.26124117
1656.25,0.01400623,-0.25776163
1660.15625,0.00598300,-0.26189393
1664.0625,0.02214584,-0.26989144
1667.96875,0.00262685,-0.27233580
1671.875,0.01330117,-0.26148048
1675.78125,0.01481687,-0.24057247
1679.6875,0.02738936,-0.22312498
1683.59375,0.00347069,-0.22103587
1687.5,0.03034492,-0.23538414
1691.40625,0.01143351,-0.25742716
1695.3125,0.00688305,-0.27645239
1699.21875,0.00103200,-0.28969276
1703.125,0.01602775,-0.30527553
1707.03125,0.00946967,-0.33094868
1710.9375,-0.00447099,-0.35967955
1714.84375,-0.00487277,-0.37107667
1718.75,0.00188487,-0.34895080
1722.65625,0.00032793,-0.29793015
1726.5625,0.02141222,-0.24456860
1730.46875,0.02472332,-0.21979916
1734.375,0.01852754,-0.23405449
1738.28125,0.01228691,-0.26715443
1742.1875,0.00274098,-0.28485844
1746.09375,0.00842070,-0.26867777
1750.0,0.01827015,-0.23228440
1753.90625,0.03311182,-0.20928939
1757.8125,0.01838114,-0.22371633
1761.71875,0.00394733,-0.27125570
1765.625,0.00765423,-0.32590243
1769.53125,0.00129279,-0.35983038
1773.4375,-0.00242030,-0.35874209
1777.34375,0.00464254,-0.32707083
1781.25,0.00908564,-0.28300387
1785.15625,0.02865387,-0.24534333
1789.0625,0.00713238,-0.22240223
1792.96875,0.02268173,-0.21303152
1796.875,0.02748983,-0.21449660
1800.78125,0.00711426,-0.22589819
1804.6875,0.02535446,-0.24683531
1808.59375,0.01453875,-0.27501711
1812.5,0.00085825,-0.30412334
1816.40625,0.00897688,-0.32557842
1820.3125,0.00602175,-0.33402580
1824.21875,0.00295212,-0.33078274
1828.125,0.00340814,-0.32356241
1832.03125,0.00766525,-0.32292667
1835.9375,0.01141097,-0.33473781
1839.84375,-0.00397877,-0.35318619
1843.75,0.00719973,-0.36260536
1847.65625,-0.00997617,-0.34903568
1851.5625,0.01279432,-0.31248891
1855.46875,0.01900919,-0.26823425
1859.375,0.01594380,-0.23465371
1863.28125,0.02054447,-0.21881364
1867.1875,0.02810559,-0.21142626
1871.09375,0.01779437,-0.19312358
1875.0,0.02852030,-0.14781874
1878.90625,0.04397488,-0.07383920
1882.8125,0.05708058,0.01649326
1886.71875,0.05762067,0.10606643
1890.625,0.09173048,0.18131404
1894.53125,0.06832289,0.23557240
1898.4375,0.08951326,0.26748526
1902.34375,0.10022676,0.27900904
1906.25,0.08997038,0.27909443
1910.15625,0.08697428,0.28576407
1914.0625,0.08627713,0.31423396
1917.96875,0.10425450,0.35946357
1921.875,0.11554775,0.39539111
1925.78125,0.10347739,0.39492422
1929.6875,0.09846912,0.35003114
1933.59375,0.08641473,0.27427751
1937.5,0.09095046,0.19166820
1941.40625,0.05086737,0.12296264
1945.3125,0.07096082,0.07482425
1949.21875,0.05994585,0.03700502
1953.125,0.03469633,-0.00931747
1957.03125,0.06916051,-0.07650524
1960.9375,0.01891948,-0.15725386
1964.84375,0.01590793,-0.22664644
1968.75,0.00853720,-0.26408917
1972.65625,0.03124561,-0.27215743
1976.5625,0.00307705,-0.27071896
1980.46875,0.01834817,-0.27856511
1984.375,0.01465608,-0.30267546
1988.28125,0.00859697,-0.33677420
1992.1875,-0.01184237,-0.36747059
1996.09375,-0.00473226,-0.38690656
2000.0,0.02176537,-0.39801362
2003.90625,-0.01448968,-0.40402991
2007.8125,-0.00949385,-0.40052748
2011.71875,-0.00184801,-0.38451961
2015.625,0.00950710,-0.36450490
2019.53125,0.00257246,-0.35444278
2023.4375,0.00822330,-0.36040887
2027.34375,-0.01378510,-0.37624270
2031.25,0.00983826,-0.38995054
2035.15625,0.00424533,-0.39218858
2039.0625,-0.02396483,-0.38413391
2042.96875,0.00938738,-0.38389200
2046.875,0.01133788,-0.41907918
2050.78125,-0.03528208,-0.50380266
2054.6875,-0.03608042,-0.62193227
2058.59375,-0.02631876,-0.72430497
2062.5,-0.05430340,-0.72942895
2066.40625,-0.03037292,-0.53745574
2070.3125,0.04105202,-0.06809749
2074.21875,0.15098989,0.70216620
2078.125,0.28771418,1.73136139
2082.03125,0.46390417,2.92720747
2085.9375,0.62945402,4.16731405
2089.84375,0.76718158,5.31291199
2093.75,0.90967280,6.21714878
2097.65625,0.99341464,6.74266672
2101.5625,0.99069649,6.79719687
2105.46875,0.93061393,6.36859179
2109.375,0.80751151,5.53220749
2113.28125,0.67008644,4.42537260
2117.1875,0.47962540,3.20395112
2121.09375,0.33352062,2.00135589
2125.0,0.17142963,0.90800983
2128.90625,0.05761488,-0.02383951
2132.8125,-0.05132666,-0.76533926
2136.71875,-0.14334425,-1.30641210
2140.625,-0.17654018,-1.66087413
2144.53125,-0.18890624,-1.86121488
2148.4375,-0.22382641,-1.93765855
2152.34375,-0.20896013,-1.90435326
2156.25,-0.19275062,-1.76839912
2160.15625,-0.17611888,-1.54946697
2164.0625,-0.11843161,-1.29019022
2167.96875,-0.08636156,-1.04576540
2171.875,-0.06727654,-0.85701364
2175.78125,-0.05277727,-0.72995299
2179.6875,-0.03963571,-0.64126593
2183.59375,-0.02377195,-0.56303108
2187.5,-0.02673513,-0.48472482
2191.40625,-0.00140650,-0.41676670
2195.3125,0.00418368,-0.37502864
2199.21875,0.00524103,-0.36157709
2203.125,-0.01072924,-0.36192557
2207.03125,-0.00226590,-0.36125898
2210.9375,-0.00423302,-0.35879275
2214.84375,0.02015400,-0.36136210
2218.75,0.00185260,-0.36459923
2222.65625,-0.02175082,-0.35012391
2226.5625,0.00692877,-0.30826354
2230.46875,0.02625364,-0.25736368
2234.375,0.01364310,-0.23245142
2238.28125,0.01799004,-0.25534284
2242.1875,0.01017042,-0.31435162
2246.09375,-0.01130643,-0.36835331
2250.0,-0.00642450,-0.37478504
2253.90625,0.00365514,-0.32170904
2257.8125,0.02077450,-0.23404482
2261.71875,0.03010906,-0.14879118
2265.625,0.03917527,-0.08681960
2269.53125,0.03176546,-0.04682487
2273.4375,0.05272908,-0.01795567
2277.34375,0.04373645,0.00780244
2281.25,0.04494054,0.03150497
2285.15625,0.07036352,0.05014306
2289.0625,0.05635670,0.06585897
2292.96875,0.04218535,0.09111372
2296.875,0.07021111,0.13836527
2300.78125,0.09241460,0.20703430
2304.6875,0.06299258,0.28519979
2308.59375,0.10460508,0.36016190
2312.5,0.11405002,0.42782071
2316.40625,0.11020529,0.49735177
2320.3125,0.11889180,0.58298182
2324.21875,0.14048487,0.68588632
2328.125,0.14873222,0.78772008
2332.03125,0.17950284,0.86624306
2335.9375,0.17770219,0.91819793
2339.84375,0.16269611,0.96538132
2343.75,0.17942470,1.03422236
2347.65625,0.20561886,1.12883496
2351.5625,0.22676228,1.22738338
2355.46875,0.21479793,1.30231249
2359.375,0.21925966,1.33874524
2363.28125,0.24238692,1.33867311
2367.1875,0.22341135,1.31887043
2371.09375,0.22265209,1.30405807
2375.0,0.21109772,1.31047285
2378.90625,0.22259070,1.33094490
2382.8125,0.25456640,1.34156072
2386.71875,0.21002348,1.32708502
2390.625,0.22488447,1.29593897
2394.53125,0.20454742,1.26791012
2398.4375,0.21875770,1.25237596
2402.34375,0.22275898,1.24242342
2406.25,0.20325832,1.22702277
2410.15625,0.20827478,1.20299804
2414.0625,0.20082010,1.17253578
2417.96875,0.18960765,1.13145995
2421.875,0.19641317,1.06578875
2425.78125,0.17633066,0.96636498
2429.6875,0.15417427,0.84722829
2433.59375,0.14028652,0.74239016
2437.5,0.12879758,0.68006843
2441.40625,0.13508417,0.66065705
2445.3125,0.11595019,0.65715265
2449.21875,0.14314991,0.63373232
2453.125,0.12324727,0.56912905
2457.03125,0.08953638,0.46914724
2460.9375,0.07942297,0.35772321
2464.84375,0.09525205,0.25791430
2468.75,0.04434099,0.18141416
2472.65625,0.05389862,0.12637489
2476.5625,0.06352966,0.08092079
2480.46875,0.03442171,0.03602456
2484.375,0.03334284,-0.00509738
2488.28125,0.02900299,-0.03502636
2492.1875,0.03574889,-0.05365523
2496.09375,0.02451429,-0.06656617
2500.0,0.02316338,-0.07889303
2503.90625,0.02136940,-0.09719402
2507.8125,0.01086701,-0.13290043
2511.71875,0.02048892,-0.19503476
2515.625,-0.00458150,-0.27598083
2519.53125,-0.01573819,-0.34847331
2523.4375,-0.02219725,-0.38251793
2527.34375,-0.02242101,-0.36840099
2531.25,-0.01141767,-0.32554194
2535.15625,0.00593425,-0.28966558
2539.0625,-0.00574619,-0.28714058
2542.96875,-0.01624536,-0.31699839
2546.875,-0.02296479,-0.35649312
2550.78125,-0.01739293,-0.38306323
2554.6875,-0.01668362,-0.38987693
2558.59375,-0.01930367,-0.38337889
2562.5,-0.03029991,-0.37321156
2566.40625,-0.01932304,-0.36782980
2570.3125,-0.00184042,-0.37332991
2574.21875,-0.04051313,-0.38949227
2578.125,-0.01762505,-0.40906379
2582.03125,-0.04046998,-0.42387903
2585.9375,-0.01305630,-0.42829281
2589.84375,-0.02443082,-0.41546866
2593.75,-0.04067138,-0.37834391
2597.65625,-0.01459536,-0.32225263
2601.5625,0.00586225,-0.27195454
2605.46875,-0.01476804,-0.25624186
2609.375,-0.00224926,-0.28359038
2613.28125,-0.01715489,-0.33410743
2617.1875,-0.04228587,-0.37554085
2621.09375,-0.01060026,-0.38854885
2625.0,-0.02159126,-0.37603876
2628.90625,-0.03419830,-0.35121369
2632.8125,-0.00731296,-0.32518727
2636.71875,-0.01336340,-0.30562899
2640.625,-0.02318280,-0.29816577
2644.53125,-0.00653114,-0.30464453
2648.4375,-0.02748116,-0.32034874
2652.34375,-0.00936191,-0.33468977
2656.25,-0.02843411,-0.33707345
2660.15625,-0.01080546,-0.32284203
2664.0625,-0.03048517,-0.29517108
2667.96875,0.00053172,-0.26479647
2671.875,-0.01434831,-0.24734020
2675.78125,-0.00026613,-0.25546652
2679.6875,-0.02738984,-0.29013905
2683.59375,-0.02329281,-0.33880609
2687.5,-0.00756197,-0.37966368
2691.40625,-0.05062021,-0.38921943
2695.3125,-0.03055404,-0.35689050
2699.21875,-0.00541068,-0.29843810
2703.125,-0.01228305,-0.24826877
2707.03125,-0.00617401,-0.23406988
2710.9375,-0.02169056,-0.25973761
2714.84375,-0.01125894,-0.30795124
2718.75,-0.02684989,-0.35344186
2722.65625,-0.03459542,-0.37788519
2726.5625,-0.03852089,-0.38122684
2730.46875,-0.02485463,-0.38106775
2734.375,-0.02487149,-0.39547673
2738.28125,-0.02588611,-0.42204320
2742.1875,-0.06096793,-0.43696734
2746.09375,-0.04241352,-0.42032042
2750.0,-0.02486918,-0.38036811
2753.90625,-0.01508000,-0.34629568
2757.8125,-0.02551563,-0.33665466
2761.71875,-0.02913810,-0.34032699
2765.625,-0.04636154,-0.33021981
2769.53125,0.00555432,-0.29192743
2773.4375,-0.03196011,-0.23737393
2777.34375,0.00141158,-0.19540542
2781.25,-0.00010265,-0.19074897
2785.15625,-0.01558472,-0.22543795
2789.0625,-0.02578346,-0.27693844
2792.96875,-0.01736513,-0.31526160
2796.875,-0.03282707,-0.32209471
2800.78125,-0.01589994,-0.29744896
2804.6875,-0.01903070,-0.25485519
2808.59375,-0.01271920,-0.21242155
2812.5,-0.00773356,-0.18573280
2816.40625,0.00161999,-0.18430686
2820.3125,-0.02386840,-0.21023910
2824.21875,-0.00672177,-0.25727552
2828.125,-0.02877556,-0.30907172
2832.03125,-0.03004267,-0.34111136
2835.9375,-0.02675621,-0.33320054
2839.84375,-0.03115403,-0.28641650
2843.75,-0.00763745,-0.22694421
2847.65625,-0.00835118,-0.18905956
2851.5625,-0.00419106,-0.19086464
2855.46875,-0.01979039,-0.22441384
2859.375,-0.01622146,-0.26600420
2863.28125,-0.02648169,-0.29354224
2867.1875,-0.03337788,-0.29843557
2871.09375,-0.01422718,-0.28800973
2875.0,-0.01639523,-0.27769318
2878.90625,-0.03292344,-0.27889633
2882.8125,-0.01263812,-0.29308611
2886.71875,-0.04058493,-0.31366652
2890.625,-0.02185353,-0.33007059
2894.53125,-0.02728993,-0.33122969
2898.4375,-0.02609734,-0.30946139
2902.34375,-0.03276664,-0.26706356
2906.25,-0.00835360,-0.22146438
2910.15625,-0.01300979,-0.19835836
2914.0625,-0.00561701,-0.21314837
2917.96875,-0.01826823,-0.25688937
2921.875,-0.03542623,-0.30065250
2925.78125,-0.02441226,-0.31559181
2929.6875,-0.03417635,-0.29329881
2933.59375,-0.01452975,-0.25172070
2937.5,-0.00551922,-0.22165796
2941.40625,-0.01612226,-0.22292495
2945.3125,-0.02727650,-0.25076106
2949.21875,-0.02453633,-0.28387293
2953.125,-0.01766041,-0.30219218
2957.03125,-0.03747875,-0.29864648
2960.9375,-0.01834714,-0.28189358
2964.84375,-0.01776754,-0.26941052
2968.75,-0.02669882,-0.27267447
2972.65625,-0.02518998,-0.28733981
2976.5625,-0.01814031,-0.29784161
2980.46875,-0.03005005,-0.29036322
2984.375,-0.03007953,-0.26451486
2988.28125,-0.01087696,-0.23623572
2992.1875,-0.01755805,-0.22617319
2996.09375,-0.00009566,-0.24015242
3000.0,-0.03209574,-0.26208535
3003.90625,-0.04161121,-0.27153391
3007.8125,-0.00897315,-0.26768729
3011.71875,-0.00878688,-0.26782283
3015.625,-0.02914018,-0.28303999
3019.53125,-0.03790487,-0.30750540
3023.4375,-0.02085274,-0.33177894
3027.34375,-0.04131642,-0.35379604
3031.25,-0.02440348,-0.37319934
3035.15625,-0.04650046,-0.38263401
3039.0625,-0.02317771,-0.36970347
3042.96875,-0.04577066,-0.32901344
3046.875,-0.02317188,-0.27377144
3050.78125,-0.00212227,-0.23241265
3054.6875,-0.02353459,-0.22766581
3058.59375,-0.01109248,-0.25756857
3062.5,-0.02802861,-0.29712647
3066.40625,-0.03103309,-0.31711143
3070.3125,-0.03829908,-0.30502093
3074.21875,-0.00783654,-0.27378753
3078.125,-0.02101335,-0.24955226
3082.03125,-0.00084638,-0.24678716
3085.9375,-0.03445587,-0.25452858
3089.84375,-0.02298227,-0.25006130
3093.75,-0.01934929,-0.22783653
3097.65625,-0.00334709,-0.21048944
3101.5625,0.00157719,-0.22505838
3105.46875,-0.02806128,-0.26924127
3109.375,-0.03386896,-0.30945125
3113.28125,-0.04109035,-0.31676015
3117.1875,-0.00419743,-0.29871482
3121.09375,-0.02127121,-0.28929174
3125.0,-0.02798543,-0.31112084
3128.90625,-0.02080868,-0.35224771
3132.8125,-0.05087325,-0.37774351
3136.71875,-0.04086016,-0.36338201
3140.625,-0.00890842,-0.31901449
3144.53125,-0.01535840,-0.27615729
3148.4375,-0.01828185,-0.25509164
3152.34375,-0.03207432,-0.25229454
3156.25,-0.01297648,-0.25699636
3160.15625,0.00134042,-0.26596081
3164.0625,-0.03466675,-0.27859661
3167.96875,-0.01976585,-0.28968966
3171.875,-0.02513373,-0.29426402
3175.78125,-0.01555109,-0.29434663
3179.6875,-0.01968171,-0.29674301
3183.59375,-0.02158151,-0.30556995
3187.5,-0.03036859,-0.31778666
3191.40625,-0.01993785,-0.32530785
3195.3125,-0.02708562,-0.32167053
3199.21875,-0.02143346,-0.30824575
3203.125,-0.02040073,-0.29430166
3207.03125,-0.01174817,-0.28862405
3210.9375,-0.02654796,-0.29061791
3214.84375,-0.02340091,-0.29234800
3218.75,-0.00661528,-0.28824699
3222.65625,-0.02205711,-0.27938995
3226.5625,-0.02253835,-0.27130592
3230.46875,-0.00898043,-0.27127066
3234.375,-0.01603754,-0.28310329
3238.28125,-0.01816843,-0.30052876
3242.1875,-0.01657578,-0.30926347
3246.09375,-0.03404045,-0.30048305
3250.0,-0.01357915,-0.28273523
3253.90625,-0.00314470,-0.27611887
3257.8125,-0.01202327,-0.29147524
3261.71875,-0.03760770,-0.31971315
3265.625,-0.01546105,-0.34406647
3269.53125,-0.02966677,-0.35575175
3273.4375,-0.02146332,-0.35463706
3277.34375,-0.01712477,-0.34255242
3281.25,-0.03292369,-0.32170147
3285.15625,-0.00252079,-0.29608768
3289.0625,-0.01931165,-0.26960123
3292.96875,-0.00891106,-0.24509868
3296.875,-0.01073640,-0.23040417
3300.78125,-0.00215712,-0.24090046
3304.6875,-0.00391082,-0.28602558
3308.59375,-0.03581735,-0.35161346
3312.5,-0.01751771,-0.40231928
3316.40625,-0.04354255,-0.40662533
3320.3125,-0.02314990,-0.36252701
3324.21875,-0.00903307,-0.30089632
3328.125,-0.00640292,-0.26145262
3332.03125,-0.00157616,-0.26091710
3335.9375,-0.02111731,-0.28221163
3339.84375,-0.01212451,-0.29343408
3343.75,-0.01393771,-0.27625623
3347.65625,0.00126470,-0.23680624
3351.5625,0.00668011,-0.19412567
3355.46875,-0.01463649,-0.16459757
3359.375,0.03771687,-0.15531868
3363.28125,-0.00441156,-0.16152677
3367.1875,-0.00466711,-0.16778418
3371.09375,0.01187031,-0.15844211
3375.0,0.01958400,-0.12699516
3378.90625,0.02368892,-0.07375616
3382.8125,0.01674925,-0.00192753
3386.71875,0.05024509,0.07949833
3390.625,0.04163512,0.15405586
3394.53125,0.06796587,0.20433290
3398.4375,0.07452977,0.22396086
3402.34375,0.05024687,0.22592643
3406.25,0.06052510,0.23524243
3410.15625,0.06572572,0.26772752
3414.0625,0.08458494,0.31635925
3417.96875,0.08428045,0.35976309
3421.875,0.08698002,0.38111550
3425.78125,0.07220734,0.37595320
3429.6875,0.08346143,0.34550723
3433.59375,0.08996635,0.29227433
3437.5,0.05055441,0.22494778
3441.40625,0.05671155,0.15864538
3445.3125,0.05392512,0.10529726
3449.21875,0.04102603,0.06752595
3453.125,0.03195541,0.04010513
3457.03125,0.04766789,0.01261961
3460.9375,0.03456411,-0.02528527
3464.84375,0.02283386,-0.07660842
3468.75,-0.00217921,-0.13709408
3472.65625,0.02903338,-0.20105144
3476.5625,0.00249567,-0.26054731
3480.46875,-0.01197421,-0.30212602
3484.375,-0.01159834,-0.31578216
3488.28125,-0.01533920,-0.30939960
3492.1875,0.01456696,-0.30683482
3496.09375,-0.00944410,-0.32731435
3500.0,-0.01186231,-0.36872333
3503.90625,-0.03893235,-0.41266286
3507.8125,-0.00455036,-0.44136733
3511.71875,-0.02627030,-0.44618791
3515.625,-0.02721625,-0.42707112
3519.53125,-0.00634070,-0.39341408
3523.4375,-0.02407401,-0.36406901
3527.34375,-0.00376664,-0.35918024
3531.25,-0.00064217,-0.38622177
3535.15625,-0.03644785,-0.43217725
3539.0625,-0.01864128,-0.47403494
3542.96875,-0.03994069,-0.50145346
3546.875,-0.02866227,-0.52712667
3550.78125,-0.02664541,-0.57126069
3554.6875,-0.06443086,-0.63420844
3558.59375,-0.03256222,-0.68044472
3562.5,-0.05115173,-0.64141172
3566.40625,-0.03137574,-0.43322450
3570.3125,0.04465079,0.01593415
3574.21875,0.15704122,0.74121940
3578.125,0.26808387,1.72873068
3582.03125,0.44680712,2.90916038
3585.9375,0.60013521,4.15626431
3589.84375,0.78718591,5.30352116
3593.75,0.89553934,6.18252468
3597.65625,0.95685416,6.66548824
3601.5625,0.98000288,6.69271469
3605.46875,0.89472330,6.27847099
3609.375,0.79423219,5.49588060
3613.28125,0.67233759,4.45056963
3617.1875,0.48184836,3.26029491
3621.09375,0.33312732,2.04437017
3625.0,0.16737585,0.91229105
3628.90625,0.02842144,-0.05290740
3632.8125,-0.06687772,-0.80928928
3636.71875,-0.13612372,-1.35623550
3640.625,-0.18955418,-1.71633470
3644.53125,-0.21975571,-1.91348886
3648.4375,-0.22577493,-1.96530020
3652.34375,-0.22595072,-1.89173460
3656.25,-0.18787976,-1.72672462
3660.15625,-0.15890421,-1.51679993
3664.0625,-0.12621269,-1.30454969
3667.96875,-0.12877323,-1.11394179
3671.875,-0.07199435,-0.95086074
3675.78125,-0.06045596,-0.81071103
3679.6875,-0.06049201,-0.68442732
3683.59375,-0.02958233,-0.56675750
3687.5,-0.01206756,-0.46283522
3691.40625,-0.00952411,-0.38392711
3695.3125,-0.00309296,-0.33941060
3699.21875,0.00218584,-0.33412370
3703.125,0.00341103,-0.36475140
3707.03125,-0.00638856,-0.41255304
3710.9375,-0.02976053,-0.44661292
3714.84375,-0.01272343,-0.44380087
3718.75,0.00189809,-0.40523493
3722.65625,-0.00664324,-0.35054132
3726.5625,0.00875907,-0.30028367
3730.46875,0.01185467,-0.26591849
3734.375,0.00484233,-0.25007513
3738.28125,0.02906630,-0.24958400
3742.1875,-0.00266221,-0.25701135
3746.09375,0.02305619,-0.26223966
3750.0,0.00938756,-0.25588822
3753.90625,0.00922767,-0.23365979
3757.8125,0.02957576,-0.19939736
3761.71875,0.01944193,-0.16301744
3765.625,0.04188069,-0.13259332
3769.53125,0.02274903,-0.10768776
3773.4375,0.04279315,-0.08079948
3777.34375,0.03832507,-0.04481636
3781.25,0.05215398,0.00111436
3785.15625,0.05748664,0.05183021
3789.0625,0.05582053,0.10166415
3792.96875,0.08506212,0.15195672
3796.875,0.07047826,0.21413556
3800.78125,0.08224030,0.30058005
3804.6875,0.11359838,0.40910205
3808.59375,0.12374413,0.52047181
3812.5,0.12945069,0.61211783
3816.40625,0.13503508,0.67062777
3820.3125,0.16787839,0.69744170
3824.21875,0.13560411,0.71305543
3828.125,0.15068927,0.75033921
3832.03125,0.15699716,0.83018118
3835.9375,0.18875480,0.94129044
3839.84375,0.19011654,1.04785609
3843.75,0.20823081,1.11769342
3847.65625,0.21427296,1.14598787
3851.5625,0.20698169,1.15807712
3855.46875,0.20622957,1.18887794
3859.375,0.20974764,1.25242126
3863.28125,0.25294718,1.32852077
3867.1875,0.24186955,1.38177979
3871.09375,0.24027877,1.39279592
3875.0,0.23101434,1.36863661
3878.90625,0.23361798,1.32838047
3882.8125,0.23176657,1.28695357
3886.71875,0.23089449,1.25314522
3890.625,0.20382510,1.23423481
3894.53125,0.22885098,1.23403394
3898.4375,0.22098920,1.24655926
3902.34375,0.22416595,1.25560331
3906.25,0.21749957,1.24163449
3910.15625,0.21877439,1.19144368
3914.0625,0.20125678,1.10677874
3917.96875,0.20327023,1.00681221
3921.875,0.15476930,0.91832048
3925.78125,0.16367126,0.85641778
3929.6875,0.18866384,0.81455922
3933.59375,0.14416452,0.77576363
3937.5,0.14614911,0.72752887
3941.40625,0.14862931,0.66299063
3945.3125,0.12023490,0.57781160
3949.21875,0.13027704,0.47350416
3953.125,0.09542298,0.36192033
3957.03125,0.08078786,0.26299036
3960.9375,0.07927302,0.19423553
3964.84375,0.06719162,0.15910098
3968.75,0.07900882,0.14518262
3972.65625,0.06799705,0.13551980
3976.5625,0.06876779,0.12140862
3980.46875,0.04585632,0.10144739
3984.375,0.08270987,0.07122657
3988.28125,0.04541253,0.02366313
3992.1875,0.04082227,-0.03922335
3996.09375,0.04209626,-0.10236897
4000.0,0.02938927,-0.14745134
4003.90625,0.02083111,-0.16571148
4007.8125,0.02592938,-0.16448180
4011.71875,0.03278764,-0.16261709
4015.625,0.02696289,-0.17655092
4019.53125,0.02781502,-0.20747361
4023.4375,0.00758108,-0.24062990
4027.34375,0.00316658,-0.25863150
4031.25,0.03488290,-0.25684008
4035.15625,0.00655607,-0.24559331
4039.0625,0.01396128,-0.24070062
4042.96875,0.01606087,-0.25367802
4046.875,0.02339098,-0.28508103
4050.78125,-0.01058734,-0.32426751
4054.6875,-0.00072516,-0.36036637
4058.59375,-0.00064575,-0.39244071
4062.5,0.00055421,-0.42334390
4066.40625,-0.02508396,-0.44724542
4070.3125,0.00248198,-0.45031267
4074.21875,-0.03126239,-0.42380860
4078.125,0.00692251,-0.37568167
4082.03125,0.00972047,-0.32944441
4085.9375,0.01040455,-0.30875328
4089.84375,-0.01123801,-0.32127610
4093.75,0.01469621,-0.35600793
4097.65625,-0.00709778,-0.39166969
4101.5625,-0.01140224,-0.40884450
4105.46875,-0.00837370,-0.40188292
4109.375,-0.00670428,-0.38218981
4113.28125,0.00562741,-0.36698210
4117.1875,0.01354993,-0.36225092
4121.09375,-0.02146446,-0.35787904
4125.0,-0.00263203,-0.34264612
4128.90625,0.01479373,-0.32154876
4132.8125,0.00653006,-0.31201705
4136.71875,0.01030889,-0.32395709
4140.625,-0.01365484,-0.34774369
4144.53125,0.01590096,-0.36007842
4148.4375,-0.01419536,-0.34090704
4152.34375,0.00702939,-0.29134071
4156.25,0.02120068,-0.23809826
4160.15625,0.02753518,-0.21387248
4164.0625,0.01123901,-0.22943075
4167.96875,0.01578990,-0.26676568
4171.875,-0.00193998,-0.29806346
4175.78125,-0.00032363,-0.30940193
4179.6875,0.01960439,-0.30841631
4183.59375,0.00570809,-0.31123602
4187.5,0.00427840,-0.32358992
4191.40625,-0.01100334,-0.33651519
4195.3125,0.00784745,-0.33807296
4199.21875,0.01390752,-0.32414010
4203.125,-0.00325628,-0.29961893
4207.03125,0.00030517,-0.27683869
4210.9375,0.02547175,-0.27177295
4214.84375,0.00876136,-0.29180402
4218.75,0.00327470,-0.32479391
4222.65625,-0.00679056,-0.34609687
4226.5625,-0.00046656,-0.33872399
4230.46875,0.00408332,-0.30663496
4234.375,0.02362744,-0.27053955
4238.28125,-0.00001367,-0.25171742
4242.1875,0.02895838,-0.25691321
4246.09375,-0.00360410,-0.27543378
4250.0,0.00336263,-0.29131901
4253.90625,0.01788943,-0.29865438
4257.8125,0.00499750,-0.30256996
4261.71875,-0.00197066,-0.30875742
4265.625,0.00652271,-0.31830409
4269.53125,0.01360141,-0.32866627
4273.4375,-0.01226022,-0.33368057
4277.34375,0.00545757,-0.32704139
4281.25,0.00723906,-0.31025153
4285.15625,0.00381690,-0.29402703
4289.0625,0.01759660,-0.28842068
4292.96875,0.00205982,-0.29152033
4296.875,0.00461805,-0.29046193
4300.78125,0.00955338,-0.27589038
4304.6875,0.01795696,-0.25334558
4308.59375,0.00666558,-0.23808518
4312.5,0.02762710,-0.24053057
4316.40625,-0.00135664,-0.25781015
4320.3125,0.02508185,-0.27637273
4324.21875,-0.00054286,-0.28018063
4328.125,0.00790117,-0.26047930
4332.03125,0.01433311,-0.22474784
4335.9375,0.03472885,-0.19500108
4339.84375,0.02092652,-0.19076835
4343.75,0.00541170,-0.21329233
4347.65625,0.02597655,-0.24733025
4351.5625,0.00792733,-0.27394837
4355.46875,0.00109872,-0.28162077
4359.375,0.01608417,-0.27182484
4363.28125,0.01193708,-0.25590968
4367.1875,0.02235050,-0.24430446
4371.09375,0.00441230,-0.23976602
4375.0,0.01568945,-0.24103132
4378.90625,0.01882782,-0.24756253
4382.8125,0.01465118,-0.25702181
4386.71875,0.01106781,-0.26246241
4390.625,0.00314474,-0.25815684
4394.53125,0.02246130,-0.24774756
4398.4375,0.01336265,-0.24263331
4402.34375,0.01777084,-0.25153998
4406.25,0.00770465,-0.27224860
4410.15625,0.01216847,-0.29182291
4414.0625,-0.00033652,-0.29503635
4417.96875,0.01323396,-0.27623171
4421.875,0.02148716,-0.24416913
4425.78125,0.01351706,-0.21441348
4429.6875,0.02280990,-0.19912794
4433.59375,0.01634769,-0.20448150
4437.5,0.02905414,-0.23061369
4441.40625,0.01050189,-0.26800302
4445.3125,-0.00678693,-0.29866102
4449.21875,0.01816015,-0.30823866
4453.125,0.01108118,-0.29631880
4457.03125,0.00146461,-0.27401090
4460.9375,0.02106350,-0.25512850
4464.84375,0.01651195,-0.24773489
4468.75,0.01877524,-0.24849638
4472.65625,0.00953334,-0.24608268
4476.5625,0.01597659,-0.23390278
4480.46875,0.01675374,-0.21931508
4484.375,0.03508667,-0.21798418
4488.28125,0.00567191,-0.23898026
4492.1875,0.01384159,-0.27616251
4496.09375,0.01842141,-0.31128222
4500.0,-0.00655531,-0.32472900
4503.90625,-0.00500698,-0.31088674
4507.8125,0.04030444,-0.28595367
4511.71875,-0.00680538,-0.27452710
4515.625,0.02138409,-0.28843501
4519.53125,0.00439058,-0.32043269
4523.4375,0.00549516,-0.35175020
4527.34375,-0.00905397,-0.36382458
4531.25,0.00401016,-0.34985712
4535.15625,0.02431370,-0.31737033
4539.0625,-0.00168219,-0.27848288
4542.96875,0.02220886,-0.24121752
4546.875,0.01890375,-0.21058837
4550.78125,0.03944368,-0.19156137
4554.6875,0.00960894,-0.18870488
4558.59375,0.03054303,-0.20526734
4562.5,0.02612664,-0.23929006
4566.40625,0.01209775,-0.27805591
4570.3125,-0.00434073,-0.30333677
4574.21875,0.03380442,-0.30586925
4578.125,-0.00060574,-0.29038170
4582.03125,0.01016114,-0.26941368
4585.9375,0.02651486,-0.25703791
4589.84375,0.02938221,-0.25984415
4593.75,0.00591879,-0.26715809
4597.65625,0.01575293,-0.25894555
4601.5625,0.01310620,-0.23107241
4605.46875,0.03045943,-0.20757776
4609.375,0.04640730,-0.21962634
4613.28125,-0.00553659,-0.27162370
4617.1875,0.02748886,-0.33271986
4621.09375,-0.01773720,-0.36230126
4625.0,0.01679819,-0.34312469
4628.90625,0.00339184,-0.29439759
4632.8125,0.04066632,-0.25585857
4636.71875,0.01882752,-0.25536385
4640.625,0.00805581,-0.28760892
4644.53125,0.01097065,-0.32190692
4648.4375,0.01012355,-0.32822132
4652.34375,0.01935090,-0.29812968
4656.25,0.01525679,-0.24961551
4660.15625,0.02508797,-0.21643084
4664.0625,0.03576259,-0.22570467
4667.96875,0.02575787,-0.27518907
4671.875,0.00268970,-0.33126369
4675.78125,-0.00202378,-0.35647544
4679.6875,0.00845637,-0.34250778
4683.59375,0.03021883,-0.31395873
4687.5,0.01361785,-0.30117390
4691.40625,0.00968507,-0.31407425
4695.3125,0.01941218,-0.33955669
4699.21875,0.00082266,-0.35620031
4703.125,0.00419255,-0.35188478
4707.03125,0.02404323,-0.33265311
4710.9375,0.01433565,-0.31494558
4714.84375,0.01258814,-0.30981371
4718.75,0.02189141,-0.31627285
4722.65625,0.01111346,-0.32590330
4726.5625,0.00994787,-0.33066079
4730.46875,0.01271640,-0.32922795
4734.375,0.02551564,-0.32660910
4738.28125,0.01905142,-0.32502887
4742.1875,0.00404711,-0.31836963
4746.09375,0.01479360,-0.30172572
4750.0,0.02625628,-0.28361130
4753.90625,0.04097323,-0.27927521
4757.8125,0.00486188,-0.29083323
4761.71875,0.02267777,-0.30186421
4765.625,0.01555490,-0.29468405
4769.53125,0.02860996,-0.26991823
4773.4375,0.02414155,-0.24854450
4777.34375,0.03645554,-0.25412437
4781.25,0.02506476,-0.28875050
4785.15625,0.01233143,-0.32565084
4789.0625,0.01245081,-0.33027667
4792.96875,0.02382171,-0.29219794
4796.875,0.02373621,-0.23742387
4800.78125,0.04781552,-0.20957091
4804.6875,0.03920287,-0.23517454
4808.59375,0.00505639,-0.30247906
4812.5,0.02340449,-0.37181753
4816.40625,0.00330877,-0.40563887
4820.3125,-0.00048269,-0.39294928
4824.21875,0.02845274,-0.35323486
4828.125,0.02635575,-0.31834510
4832.03125,0.00756393,-0.30798325
4835.9375,0.04016725,-0.32013324
4839.84375,0.00930087,-0.33808944
4843.75,0.00784067,-0.34375888
4847.65625,0.03081311,-0.32997799
4851.5625,0.02715367,-0.30297938
4855.46875,0.02458501,-0.27413562
4859.375,0.02830357,-0.25300598
4863.28125,0.03507820,-0.24546298
4867.1875,0.03477543,-0.24983533
4871.09375,0.03927482,-0.25230506
4875.0,0.02435131,-0.23171285
4878.90625,0.03759819,-0.17506291
4882.8125,0.06839066,-0.08877363
4886.71875,0.06057412,0.00705710
4890.625,0.08392480,0.09403615
4894.53125,0.10067268,0.16662873
4898.4375,0.08982679,0.23328887
4902.34375,0.10513087,0.30576777
4906.25,0.13334225,0.38402951
4910.15625,0.12214766,0.45222464
4914.0625,0.13969728,0.48820058
4917.96875,0.13797230,0.47685114
4921.875,0.12866595,0.42100009
4925.78125,0.11641251,0.34378031
4929.6875,0.10396463,0.27615279
4933.59375,0.09543378,0.23547845
4937.5,0.10799740,0.21391229
4941.40625,0.10019271,0.18906474
4945.3125,0.08428718,0.14567800
4949.21875,0.08813269,0.08541607
4953.125,0.06236048,0.01878637
4957.03125,0.07498155,-0.04624250
4960.9375,0.05478447,-0.10580077
4964.84375,0.04726787,-0.15576848
4968.75,0.04193884,-0.19337346
4972.65625,0.03586089,-0.22298554
4976.5625,0.06284355,-0.25211212
4980.46875,0.01036314,-0.27944645
4984.375,0.02923578,-0.29555500
4988.28125,0.04003868,-0.29796535
4992.1875,0.03221179,-0.29761991
4996.09375,0.01886494,-0.30953220
5000.0,0.04256944,-0.34150010
5003.90625,0.00829980,-0.38886315
5007.8125,0.00505438,-0.43707758
5011.71875,0.02728054,-0.46962392
5015.625,0.00283038,-0.47346076
5019.53125,-0.00837852,-0.44498149
5023.4375,0.03063600,-0.39935541
5027.34375,0.02899895,-0.36560097
5031.25,0.02824565,-0.36177665
5035.15625,0.01264074,-0.37965101
5039.0625,0.01855408,-0.40011755
5042.96875,0.00062781,-0.42075872
5046.875,0.02605842,-0.46216562
5050.78125,0.00496320,-0.54153877
5054.6875,-0.00619898,-0.63790166
5058.59375,-0.04473412,-0.68715072
5062.5,-0.00497685,-0.61275303
5066.40625,0.03340679,-0.35598883
5070.3125,0.09329308,0.12087078
5074.21875,0.18945487,0.84106743
5078.125,0.31694180,1.80248690
5082.03125,0.47491816,2.95303988
5085.9375,0.65596092,4.17795134
5089.84375,0.80934209,5.31589651
5093.75,0.92841887,6.19708204
5097.65625,0.99003601,6.68413448
5101.5625,1.01943016,6.70474243
5105.46875,0.92773098,6.26998901
5109.375,0.83012253,5.46623468
5113.28125,0.67454499,4.41893053
5117.1875,0.52692640,3.25231957
5121.09375,0.36509487,2.07112932
5125.0,0.21092319,0.96414959
5128.90625,0.07672238,0.00769586
5132.8125,-0.05004144,-0.74672008
5136.71875,-0.08148814,-1.28782105
5140.625,-0.14797968,-1.63790572
5144.53125,-0.18083799,-1.82759488
5148.4375,-0.18593763,-1.88215053
5152.34375,-0.18215413,-1.82906759
5156.25,-0.15417975,-1.70523250
5160.15625,-0.13010012,-1.54665446
5164.0625,-0.10985120,-1.37152195
5167.96875,-0.10840845,-1.18078446
5171.875,-0.05268873,-0.97906882
5175.78125,-0.02527123,-0.78761083
5179.6875,-0.00791831,-0.63095438
5183.59375,-0.00362388,-0.51821738
5187.5,0.01242782,-0.44404450
5191.40625,0.02523302,-0.40257114
5195.3125,0.01110101,-0.39402410
5199.21875,0.03683155,-0.41830772
5203.125,-0.00255556,-0.46470645
5207.03125,0.00700242,-0.50955760
5210.9375,0.01231297,-0.52500218
5214.84375,-0.00514850,-0.49291730
5218.75,0.01326777,-0.41799766
5222.65625,0.04145689,-0.32966042
5226.5625,0.04276020,-0.26350775
5230.46875,0.03062169,-0.23703250
5234.375,0.05193077,-0.24353833
5238.28125,0.03623776,-0.26321289
5242.1875,0.02976040,-0.27634123
5246.09375,0.04131417,-0.27259532
5250.0,0.03978409,-0.25308922
5253.90625,0.05363489,-0.22383812
5257.8125,0.03052199,-0.18974717
5261.71875,0.06470812,-0.15609187
5265.625,0.05177700,-0.12912059
5269.53125,0.07256582,-0.10850538
5273.4375,0.04926539,-0.08239362
5277.34375,0.06863425,-0.03704342
5281.25,0.08096206,0.02880903
5285.15625,0.09765011,0.10349092
5289.0625,0.07946548,0.17418386
5292.96875,0.12174547,0.23565155
5296.875,0.11557926,0.29227653
5300.78125,0.11188603,0.35568425
5304.6875,0.14152591,0.43575460
5308.59375,0.13713874,0.52996063
5312.5,0.15900102,0.62164509
5316.40625,0.18231677,0.69085723
5320.3125,0.17306925,0.73147178
5324.21875,0.16692716,0.75810260
5328.125,0.17744863,0.79224294
5332.03125,0.19867995,0.84369797
5335.9375,0.20400892,0.90943635
5339.84375,0.19906396,0.98376840
5343.75,0.20909984,1.05956447
5347.65625,0.23262483,1.12407649
5351.5625,0.25968984,1.16843367
5355.46875,0.20615400,1.20234787
5359.375,0.25181514,1.24554551
5363.28125,0.24515985,1.30112135
5367.1875,0.26070678,1.34686065
5371.09375,0.26448038,1.35648155
5375.0,0.25643155,1.32703757
5378.90625,0.24432935,1.28482544
5382.8125,0.23946364,1.26284683
5386.71875,0.23243189,1.27015829
5390.625,0.26728618,1.28457987
5394.53125,0.24682793,1.27754021
5398.4375,0.23865780,1.24330485
5402.34375,0.23672673,1.20116138
5406.25,0.21808665,1.17244589
5410.15625,0.23116906,1.15831006
5414.0625,0.23602135,1.13869917
5417.96875,0.22595467,1.09145880
5421.875,0.18510017,1.00988805
5425.78125,0.21143903,0.90332228
5429.6875,0.17677487,0.78990775
5433.59375,0.15363152,0.68991214
5437.5,0.15233566,0.61462599
5441.40625,0.14594014,0.55789340
5445.3125,0.14793146,0.50519037
5449.21875,0.12621054,0.45171508
5453.125,0.11122259,0.40516341
5457.03125,0.11715662,0.37063929
5460.9375,0.13469043,0.34172869
5464.84375,0.09478287,0.30918598
5468.75,0.10076255,0.26857084
5472.65625,0.08853478,0.21567050
5476.5625,0.11228250,0.14580640
5480.46875,0.05085874,0.06410053
5484.375,0.08048513,-0.01058483
5488.28125,0.04611954,-0.05732061
5492.1875,0.04899235,-0.07059759
5496.09375,0.04998752,-0.06958156
5500.0,0.08485564,-0.08517724
5503.90625,0.03335367,-0.13006729
5507.8125,0.01612328,-0.18727630
5511.71875,0.05100996,-0.23265465
5515.625,0.02237093,-0.25776118
5519.53125,0.02685083,-0.26792341
5523.4375,0.02710182,-0.27036911
5527.34375,0.02645316,-0.26891023
5531.25,0.02139705,-0.26510426
5535.15625,0.02502792,-0.26262894
5539.0625,0.02504317,-0.26961923
5542.96875,0.02940414,-0.29301363
5546.875,0.01295432,-0.32870531
5550.78125,0.00816328,-0.35995412
5554.6875,0.00357775,-0.36894244
5558.59375,0.02275458,-0.35017624
5562.5,0.01448312,-0.31263778
5566.40625,0.02115564,-0.27261266
5570.3125,0.02052424,-0.24693789
5574.21875,0.03390498,-0.24837440
5578.125,0.01582387,-0.27990702
5582.03125,0.02206445,-0.33046094
5585.9375,-0.00165699,-0.37811857
5589.84375,-0.00042149,-0.40241894
5593.75,0.00859416,-0.39837024
5597.65625,-0.00245225,-0.38010591
5601.5625,0.02025360,-0.36978477
5605.46875,-0.00417437,-0.38032839
5609.375,0.01249770,-0.40593833
5613.28125,-0.01795632,-0.42840463
5617.1875,-0.00184571,-0.43327373
5621.09375,0.00721964,-0.41904187
5625.0,0.00806042,-0.39117005
5628.90625,-0.01044661,-0.35484272
5632.8125,0.01224402,-0.31948110
5636.71875,0.02252720,-0.30159914
5640.625,0.01849803,-0.31102598
5644.53125,0.00270751,-0.33593139
5648.4375,0.00345504,-0.35020378
5652.34375,-0.00384042,-0.33869538
5656.25,0.01784549,-0.31320149
5660.15625,0.02748093,-0.30040205
5664.0625,0.00376256,-0.31407550
5667.96875,-0.01040687,-0.34389463
5671.875,0.01225976,-0.36941782
5675.78125,0.01824551,-0.37417960
5679.6875,-0.02302089,-0.34879261
5683.59375,0.01119692,-0.29754880
5687.5,0.03540105,-0.24353294
5691.40625,0.01916764,-0.21386245
5695.3125,0.01581652,-0.21876238
5699.21875,0.01392730,-0.24935210
5703.125,0.02173513,-0.28846407
5707.03125,-0.00241148,-0.31947863
5710.9375,-0.00137167,-0.33418444
5714.84375,0.01355275,-0.33752075
5718.75,0.00032718,-0.33896038
5722.65625,0.01154445,-0.33793038
5726.5625,-0.01462215,-0.32439989
5730.46875,0.01731233,-0.29489347
5734.375,0.01826849,-0.26086560
5738.28125,0.00851662,-0.23971361
5742.1875,0.00985292,-0.24337329
5746.09375,0.02721472,-0.27320132
5750.0,-0.00534347,-0.31675920
5753.90625,-0.00341773,-0.35197803
5757.8125,-0.00569933,-0.36359093
5761.71875,0.00221550,-0.35576612
5765.625,-0.00493590,-0.34567156
5769.53125,0.00752785,-0.34578156
5773.4375,-0.00084047,-0.35256734
5777.34375,-0.01053657,-0.35157740
5781.25,-0.01186434,-0.33441436
5785.15625,0.02116201,-0.30837485
5789.0625,0.00567966,-0.28610647
5792.96875,0.00366199,-0.27090672
5796.875,0.00659247,-0.25873598
5800.78125,0.00516865,-0.25044647
5804.6875,0.01511347,-0.25425780
5808.59375,0.01267013,-0.27531525
5812.5,-0.00127080,-0.30606380
5816.40625,-0.00419417,-0.32957995
5820.3125,-0.00747026,-0.33413553
5824.21875,-0.00956115,-0.32530051
5828.125,0.02216000,-0.32117769
5832.03125,-0.00578259,-0.33210629
5835.9375,-0.01913124,-0.34854439
5839.84375,-0.00514326,-0.35389549
5843.75,-0.00460074,-0.34325510
5847.65625,0.00869869,-0.32216290
5851.5625,-0.00601063,-0.29224959
5855.46875,0.01091872,-0.24768451
5859.375,0.00904435,-0.18738066
5863.28125,0.01946416,-0.12727942
5867.1875,0.03014614,-0.09697308
5871.09375,0.03820894,-0.11817299
5875.0,0.02011182,-0.18095756
5878.90625,-0.01013503,-0.24416237
5882.8125,-0.00118959,-0.26689959
5886.71875,0.00651184,-0.24213517
5890.625,0.02823677,-0.19850978
5894.53125,0.01141771,-0.17204119
5898.4375,0.01761763,-0.17815141
5902.34375,0.00096852,-0.20635889
5906.25,0.01001802,-0.23469199
5910.15625,0.01143147,-0.24707717
5914.0625,-0.00278409,-0.24117400
5917.96875,0.01189790,-0.22503045
5921.875,0.01529794,-0.20769013
5925.78125,0.00042598,-0.19344464
5929.6875,0.01442220,-0.18616992
5933.59375,0.02185789,-0.19355117
5937.5,0.00275594,-0.21924485
5941.40625,0.00184205,-0.25374144
5945.3125,-0.00199946,-0.28010008
5949.21875,-0.00583806,-0.28912440
5953.125,0.00334511,-0.28709328
5957.03125,-0.00359304,-0.28911626
5960.9375,-0.00251735,-0.30493054
5964.84375,-0.00817799,-0.32963145
5968.75,-0.01745122,-0.34756109
5972.65625,-0.01038816,-0.34574294
5976.5625,0.00468411,-0.32280910
5980.46875,-0.01358416,-0.28625780
5984.375,-0.00728486,-0.24754898
5988.28125,0.02007406,-0.22036389
5992.1875,0.01376362,-0.21397269
5996.09375,-0.00819828,-0.22475015
6000.0,0.00724055,-0.23965792
6003.90625,-0.00792615,-0.24811880
6007.8125,0.01928564,-0.24713281
6011.71875,-0.00739646,-0.23884401
6015.625,0.00048978,-0.22924121
6019.53125,0.01600421,-0.22667126
6023.4375,-0.01067067,-0.23515816
6027.34375,0.01479565,-0.24972172
6031.25,-0.01079077,-0.26173905
6035.15625,0.00175444,-0.26786026
6039.0625,-0.00477379,-0.27187240
6042.96875,-0.00241094,-0.27838674
6046.875,0.00044979,-0.28533360
6050.78125,-0.00248578,-0.28298694
6054.6875,-0.01392395,-0.26266596
6058.59375,0.00856078,-0.22886109
6062.5,0.00668613,-0.20028000
6066.40625,0.01339561,-0.19391721
6070.3125,0.01441493,-0.20749889
6074.21875,-0.01845399,-0.22184348
6078.125,0.01297792,-0.22236595
6082.03125,0.01300285,-0.21333021
6085.9375,-0.00907853,-0.20972735
6089.84375,0.00963569,-0.22224069
6093.75,0.01468416,-0.24898151
6097.65625,-0.00952197,-0.27349854
6101.5625,-0.01972228,-0.27567297
6105.46875,-0.00761270,-0.25446367
6109.375,0.03009325,-0.23437032
6113.28125,-0.00070496,-0.24057552
6117.1875,-0.01823131,-0.27352330
6121.09375,-0.00681674,-0.31391814
6125.0,-0.01583043,-0.34408855
6128.90625,-0.00881346,-0.35702443
6132.8125,-0.00300050,-0.35080260
6136.71875,-0.03500137,-0.32505792
6140.625,-0.00005722,-0.28700924
6144.53125,0.01247436,-0.25403592
6148.4375,-0.00698959,-0.24300794
6152.34375,-0.00933281,-0.25984856
6156.25,0.00826348,-0.29913422
6160.15625,-0.02017822,-0.34507731
6164.0625,-0.02004800,-0.37445083
6167.96875,-0.02190232,-0.37003261
6171.875,-0.00722279,-0.33441091
6175.78125,-0.00072410,-0.28746489
6179.6875,-0.00665727,-0.25138459
6183.59375,0.00090916,-0.23892622
6187.5,0.00416327,-0.24966291
6191.40625,0.00003601,-0.27108952
6195.3125,-0.01574397,-0.28711057
6199.21875,-0.00937404,-0.29236722
6203.125,0.00870533,-0.29621568
6207.03125,-0.01895028,-0.30910161
6210.9375,-0.00954729,-0.32986420
6214.84375,-0.01162941,-0.34820935
6218.75,-0.00889886,-0.35222682
6222.65625,-0.01976124,-0.33348829
6226.5625,-0.02316038,-0.29580027
6230.46875,0.02358830,-0.26012370
6234.375,0.00415291,-0.24896874
6238.28125,-0.01586367,-0.26370800
6242.1875,-0.00813392,-0.28590780
6246.09375,0.00058035,-0.29923561
6250.0,-0.01177760,-0.30236658
6253.90625,-0.00036862,-0.30415270
6257.8125,-0.01526325,-0.31393835
6261.71875,-0.01229482,-0.33581907
6265.625,-0.00912203,-0.36561605
6269.53125,-0.01370676,-0.38937089
6273.4375,-0.03776235,-0.38998702
6277.34375,-0.00818595,-0.36336356
6281.25,-0.00541117,-0.32614309
6285.15625,-0.00294660,-0.30245572
6289.0625,-0.02069836,-0.30625197
6292.96875,-0.00474808,-0.33727002
6296.875,-0.00639749,-0.38323158
6300.78125,-0.03031592,-0.42038816
6304.6875,-0.03561325,-0.42301127
6308.59375,-0.00356538,-0.38298407
6312.5,-0.02081518,-0.31990099
6316.40625,0.00259706,-0.27008542
6320.3125,0.01621761,-0.26151183
6324.21875,-0.01645597,-0.29190129
6328.125,-0.01767144,-0.33137289
6332.03125,-0.00938605,-0.34951562
6335.9375,-0.00087032,-0.33707938
6339.84375,-0.02214493,-0.30480787
6343.75,0.00711639,-0.27165085
6347.65625,0.00505916,-0.25281930
6351.5625,0.00248509,-0.24954383
6355.46875,-0.01004985,-0.24952371
6359.375,0.00988999,-0.24004817
6363.28125,0.01233515,-0.21794529
6367.1875,-0.00843411,-0.18755963
6371.09375,0.03582654,-0.15424374
6375.0,0.01276935,-0.11870860
6378.90625,0.02727945,-0.07577032
6382.8125,0.02379265,-0.02279284
6386.71875,0.04254467,0.03084333
6390.625,0.06008176,0.07005315
6394.53125,0.04481625,0.09182570
6398.4375,0.04275910,0.11073799
6402.34375,0.06475507,0.14496343
6406.25,0.06105447,0.20121394
6410.15625,0.07289206,0.27133840
6414.0625,0.08414873,0.33607030
6417.96875,0.08675966,0.37349346
6421.875,0.10296015,0.37345940
6425.78125,0.07331228,0.34824356
6429.6875,0.08592572,0.32467690
6433.59375,0.07019930,0.32006910
6437.5,0.08595058,0.32427683
6441.40625,0.09220906,0.30625227
6445.3125,0.05722104,0.23864852
6449.21875,0.06513469,0.11828821
6453.125,0.03024320,-0.03051936
6457.03125,0.00935545,-0.16830148
6460.9375,0.00584893,-0.26085901
6464.84375,-0.00455480,-0.29539165
6468.75,-0.00292196,-0.28316250
6472.65625,0.00065795,-0.25193599
6476.5625,0.01318715,-0.23380920
6480.46875,0.00440743,-0.24977307
6484.375,-0.00111052,-0.29698113
6488.28125,-0.01385147,-0.35009778
6492.1875,-0.01902733,-0.38004515
6496.09375,-0.01116562,-0.37704605
6500.0,-0.01080215,-0.35831049
6503.90625,-0.01003202,-0.35363346
6507.8125,-0.00912460,-0.38092896
6511.71875,-0.01534433,-0.43036208
6515.625,-0.03729077,-0.47003379
6519.53125,-0.02778587,-0.47129723
6523.4375,-0.02450554,-0.43234360
6527.34375,0.00550565,-0.37714633
6531.25,-0.02046400,-0.33423927
6535.15625,-0.00827986,-0.32166040
6539.0625,-0.00101551,-0.34794417
6542.96875,-0.01880611,-0.41443357
6546.875,-0.03455728,-0.51111335
6550.78125,-0.04320820,-0.61422855
6554.6875,-0.06260436,-0.69034886
6558.59375,-0.05295325,-0.70168221
6562.5,-0.03649154,-0.60553885
6566.40625,-0.01311219,-0.34946704
6570.3125,0.05246085,0.12387109
6574.21875,0.15304211,0.85359174
6578.125,0.30538505,1.83247936
6582.03125,0.43573809,2.99199152
6585.9375,0.61489671,4.20499659
6589.84375,0.77742267,5.30787182
6593.75,0.90470189,6.14259672
6597.65625,0.92871290,6.59854031
6601.5625,0.95703179,6.62674093
6605.46875,0.90323627,6.23118639
6609.375,0.78198385,5.46043825
6613.28125,0.65556651,4.40397406
6617.1875,0.48101586,3.18462777
6621.09375,0.30697152,1.94225442
6625.0,0.14013958,0.80539650
6628.90625,0.01548358,-0.14215933
6632.8125,-0.08136507,-0.87664670
6636.71875,-0.13737684,-1.41502845
6640.625,-0.20522228,-1.77708960
6644.53125,-0.24081875,-1.96603096
6648.4375,-0.24011175,-1.98427045
6652.34375,-0.22170468,-1.86046696
6656.25,-0.17574221,-1.65253592
6660.15625,-0.14038675,-1.42085862
6664.0625,-0.14792553,-1.20137775
6667.96875,-0.10289226,-1.00724256
6671.875,-0.07213000,-0.84782702
6675.78125,-0.05228308,-0.73319781
6679.6875,-0.05236377,-0.66185045
6683.59375,-0.05416156,-0.61634034
6687.5,-0.03564884,-0.57592911
6691.40625,-0.04624936,-0.53184617
6695.3125,-0.01721127,-0.48984593
6699.21875,-0.00827155,-0.45728123
6703.125,-0.03866460,-0.42900422
6707.03125,-0.01535787,-0.39212188
6710.9375,-0.01020266,-0.34517494
6714.84375,0.00227810,-0.30503082
6718.75,0.00489773,-0.29135707
6722.65625,-0.00082938,-0.30626786
6726.5625,-0.01730910,-0.33059660
6730.46875,-0.01190457,-0.34012279
6734.375,0.00878621,-0.32413757
6738.28125,-0.01085592,-0.29007852
6742.1875,-0.00172523,-0.25695851
6746.09375,0.02018984,-0.24301413
6750.0,0.00600925,-0.24869131
6753.90625,-0.00864498,-0.25081205
6757.8125,0.00805913,-0.22269820
6761.71875,0.02343808,-0.16070196
6765.625,0.01806330,-0.08741721
6769.53125,0.03929990,-0.03204250
6773.4375,0.04621185,-0.00796390
6777.34375,0.02893444,-0.00380467
6781.25,0.03707073,0.00565646
6785.15625,0.04868215,0.03924080
6789.0625,0.04276905,0.09895547
6792.96875,0.06939892,0.17407340
6796.875,0.07076953,0.25114542
6800.78125,0.09078010,0.32280210
6804.6875,0.08289813,0.38976240
6808.59375,0.08855024,0.45396325
6812.5,0.13037764,0.51283532
6816.40625,0.10713276,0.56463462
6820.3125,0.12008943,0.61475027
6824.21875,0.12775314,0.67032784
6828.125,0.14222437,0.73265958
6832.03125,0.14404793,0.79957491
6835.9375,0.16339524,0.87146598
6839.84375,0.16401401,0.95070618
6843.75,0.17555945,1.03537524
6847.65625,0.19246802,1.11572397
6851.5625,0.20346251,1.17968607
6855.46875,0.20687285,1.22241271
6859.375,0.19788423,1.24765444
6863.28125,0.21608673,1.26062357
6867.1875,0.21357800,1.26598060
6871.09375,0.21650317,1.27388060
6875.0,0.19888398,1.29805136
6878.90625,0.22837666,1.33969355
6882.8125,0.21839909,1.37718952
6886.71875,0.23929100,1.38047171
6890.625,0.22424200,1.33936918
6894.53125,0.19993927,1.27508926
6898.4375,0.19271961,1.21983755
6902.34375,0.21796900,1.18807864
6906.25,0.18781412,1.17214489
6910.15625,0.19993567,1.15879273
6914.0625,0.18085289,1.14008892
6917.96875,0.20186283,1.11108470
6921.875,0.16923556,1.06564653
6925.78125,0.17771079,0.99789149
6929.6875,0.16646260,0.90882581
6933.59375,0.13562521,0.81089216
6937.5,0.12781280,0.72084343
6941.40625,0.14011504,0.64771605
6945.3125,0.11287016,0.59218997
6949.21875,0.09310564,0.55172473
6953.125,0.10881943,0.51751542
6957.03125,0.11633050,0.47382718
6960.9375,0.07637651,0.41072813
6964.84375,0.08536137,0.33402190
6968.75,0.05871832,0.25869897
6972.65625,0.06943135,0.19627060
6976.5625,0.04320852,0.14800300
6980.46875,0.05544152,0.10514426
6984.375,0.03979600,0.05509357
6988.28125,0.02533723,-0.00945742
6992.1875,0.02509867,-0.08498149
6996.09375,0.01091085,-0.15824917
7000.0,-0.00051061,-0.21311159
7003.90625,-0.00367265,-0.24035594
7007.8125,0.00472055,-0.24334617
7011.71875,-0.01052215,-0.23429254
7015.625,0.00457854,-0.22664317
7019.53125,0.00312098,-0.22953255
7023.4375,0.00013682,-0.24389718
7027.34375,-0.01345746,-0.26247954
7031.25,-0.00854815,-0.27705428
7035.15625,-0.01104396,-0.28676620
7039.0625,0.00383242,-0.29758924
7042.96875,-0.02285586,-0.31429538
7046.875,-0.01875214,-0.33603650
7050.78125,-0.01776187,-0.35844833
7054.6875,-0.01736880,-0.37498391
7058.59375,-0.02523581,-0.37721395
7062.5,-0.02427985,-0.35992929
7066.40625,-0.00494546,-0.32685927
7070.3125,-0.02514063,-0.28971326
7074.21875,-0.00674417,-0.26355606
7078.125,0.00645026,-0.26036555
7082.03125,-0.00281487,-0.27920759
7085.9375,-0.04000952,-0.30523929
7089.84375,-0.00913531,-0.32605910
7093.75,-0.01276751,-0.34330106
7097.65625,-0.01204448,-0.36067271
7101.5625,-0.03815611,-0.36921656
7105.46875,-0.00955755,-0.35422242
7109.375,-0.03177406,-0.31375831
7113.28125,-0.00318430,-0.26652670
7117.1875,-0.00586793,-0.24145526
7121.09375,0.01185877,-0.25482869
7125.0,-0.02338904,-0.29332563
7128.90625,-0.03705274,-0.32417420
7132.8125,-0.00616144,-0.32550448
7136.71875,-0.00824563,-0.30315757
7140.625,-0.02331818,-0.28057408
7144.53125,-0.00237355,-0.27963689
7148.4375,-0.01041543,-0.30592769
7152.34375,-0.03412503,-0.34359020
7156.25,-0.02286145,-0.36799896
7160.15625,-0.02397041,-0.36789879
7164.0625,-0.01990583,-0.35250604
7167.96875,-0.01625538,-0.33728755
7171.875,-0.02688159,-0.32805809
7175.78125,-0.02087099,-0.32113880
7179.6875,-0.01139156,-0.31456336
7183.59375,-0.01932205,-0.31334388
7187.5,-0.02164913,-0.32388344
7191.40625,-0.02202765,-0.34601685
7195.3125,-0.01953971,-0.37017381
7199.21875,-0.04128999,-0.38296917
7203.125,-0.01633795,-0.37832764
7207.03125,-0.03056998,-0.36211672
7210.9375,-0.01691278,-0.34459645
7214.84375,-0.03581496,-0.33214995
7218.75,-0.00703814,-0.32687134
7222.65625,-0.01522016,-0.32690379
7226.5625,-0.03423804,-0.32474521
7230.46875,-0.01513099,-0.31245652
7234.375,-0.02705087,-0.29218057
7238.28125,0.00373025,-0.27649078
7242.1875,-0.01194724,-0.27441543
7246.09375,-0.02735345,-0.28045720
7250.0,-0.01503972,-0.28213066
7253.90625,-0.01807891,-0.27594537
7257.8125,-0.00325475,-0.27016813
7261.71875,-0.01329166,-0.27146274
7265.625,-0.01135299,-0.27329987
7269.53125,-0.03088386,-0.26253110
7273.4375,-0.00789237,-0.23837905
7277.34375,0.00778641,-0.21881340
7281.25,-0.00963907,-0.22331087
7285.15625,-0.01770253,-0.25353861
7289.0625,-0.01520479,-0.29390743
7292.96875,-0.02855151,-0.32559928
7296.875,-0.01482425,-0.33776861
7300.78125,-0.03018112,-0.33139259
7304.6875,-0.01641146,-0.31760129
7308.59375,-0.02153969,-0.31080815
7312.5,-0.02679281,-0.31886792
7316.40625,-0.00979622,-0.33622327
7320.3125,-0.03457753,-0.34516776
7324.21875,-0.01712330,-0.32672462
7328.125,-0.03247971,-0.27621141
7332.03125,0.00545041,-0.21044581
7335.9375,0.00725249,-0.15734895
7339.84375,-0.00622744,-0.13748617
7343.75,0.00644631,-0.15520452
7347.65625,-0.00914134,-0.20124985
7351.5625,-0.00968856,-0.25751716
7355.46875,-0.02124067,-0.30284908
7359.375,-0.02681995,-0.32262143
7363.28125,-0.01447643,-0.31640050
7367.1875,-0.02237231,-0.29657564
7371.09375,-0.02113668,-0.28045672
7375.0,-0.00706682,-0.28143391
7378.90625,-0.01728175,-0.30103329
7382.8125,-0.03441521,-0.32737491
7386.71875,-0.01821982,-0.34423143
7390.625,-0.02471770,-0.34084401
7394.53125,-0.01902611,-0.31409389
7398.4375,-0.02859635,-0.27047381
7402.34375,-0.00095154,-0.22936890
7406.25,0.00755167,-0.21374248
7410.15625,-0.02855146,-0.23007467
7414.0625,-0.00735688,-0.26150301
7417.96875,-0.00789180,-0.28157482
7421.875,-0.02788811,-0.27275020
7425.78125,-0.01370751,-0.23874760
7429.6875,0.00208673,-0.20451663
7433.59375,-0.00461085,-0.19794242
7437.5,0.00472781,-0.22523977
7441.40625,-0.02867778,-0.26496208
7445.3125,-0.02352224,-0.28871378
7449.21875,-0.01099755,-0.28741276
7453.125,-0.01017198,-0.27539775
7457.03125,-0.01406220,-0.27166438
7460.9375,-0.01892857,-0.28241941
7464.84375,-0.01914136,-0.30059355
7468.75,-0.02143697,-0.31548628
7472.65625,-0.00866086,-0.32005858
7476.5625,-0.04711689,-0.31409612
7480.46875,0.00527075,-0.30524436
7484.375,-0.02018553,-0.30334684
7488.28125,-0.03094317,-0.31033260
7492.1875,-0.00716965,-0.31803095
7496.09375,-0.03049131,-0.31509200
7500.0,-0.00891936,-0.29466462
7503.90625,-0.01829843,-0.25998369
7507.8125,-0.00631341,-0.22557484
7511.71875,-0.00385360,-0.20995131
7515.625,0.00228687,-0.22252311
7519.53125,-0.01911725,-0.25586331
7523.4375,-0.01658889,-0.29154781
7527.34375,-0.01316349,-0.31336674
7531.25,-0.02991247,-0.31577265
7535.15625,-0.00573648,-0.30359715
7539.0625,-0.01122382,-0.28550687
7542.96875,-0.02877200,-0.26772511
7546.875,0.00192648,-0.25355744
7550.78125,0.00387971,-0.24364105
7554.6875,-0.02822794,-0.23524508
7558.59375,-0.00546813,-0.22917794
7562.5,0.00276416,-0.23608078
7566.40625,-0.00207486,-0.26461735
7570.3125,-0.02383710,-0.30468625
7574.21875,-0.02874385,-0.33304647
7578.125,-0.01327267,-0.33585230
7582.03125,-0.01775041,-0.31931978
7585.9375,-0.01180175,-0.29948419
7589.84375,-0.01284967,-0.28612593
7593.75,-0.00519391,-0.27535424
7597.65625,-0.01815801,-0.25617060
7601.5625,-0.01328003,-0.22673866
7605.46875,0.02437248,-0.20212129
7609.375,-0.01270934,-0.20067382
7613.28125,-0.00222033,-0.22575234
7617.1875,-0.00750391,-0.26416358
7621.09375,-0.00825537,-0.29625517
7625.0,-0.02172102,-0.30514202
7628.90625,-0.00435771,-0.28468555
7632.8125,-0.01120521,-0.24529336
7636.71875,-0.00067936,-0.21078669
7640.625,0.01422301,-0.20355386
7644.53125,-0.00807768,-0.22653857
7648.4375,-0.00105615,-0.25962248
7652.34375,-0.02237482,-0.27823260
7656.25,-0.00858903,-0.27694806
7660.15625,0.00872799,-0.27170831
7664.0625,-0.01050611,-0.27837214
7667.96875,-0.01732794,-0.29514399
7671.875,-0.00710271,-0.30819875
7675.78125,-0.01169122,-0.30745682
7679.6875,-0.01225685,-0.29467559
7683.59375,-0.01373582,-0.28238052
7687.5,0.01468206,-0.28415400
7691.40625,-0.01950295,-0.29944044
7695.3125,-0.01389847,-0.31080237
7699.21875,-0.01568056,-0.30263811
7703.125,0.00615311,-0.27947968
7707.03125,-0.01196613,-0.26151979
7710.9375,0.00714119,-0.26481885
7714.84375,-0.00640324,-0.28665173
7718.75,-0.00857205,-0.30744433
7722.65625,-0.02571056,-0.30896190
7726.5625,0.00646539,-0.29327774
7730.46875,-0.00146885,-0.28086051
7734.375,-0.00298877,-0.28840753
7738.28125,-0.00914660,-0.31178695
7742.1875,-0.01262547,-0.33177423
7746.09375,-0.02272955,-0.33495742
7750.0,0.00394949,-0.32735762
7753.90625,-0.00405871,-0.32462648
7757.8125,-0.01148164,-0.32998160
7761.71875,-0.01462239,-0.32895693
7765.625,-0.00555107,-0.30878955
7769.53125,-0.00791916,-0.27837202
7773.4375,0.01300106,-0.26424456
7777.34375,0.00268921,-0.28508654
7781.25,-0.01363406,-0.33174792
7785.15625,-0.01963154,-0.37480685
7789.0625,-0.00907791,-0.38946560
7792.96875,-0.01706720,-0.37124616
7796.875,-0.00509440,-0.33414903
7800.78125,-0.00103274,-0.30015200
7804.6875,0.00188426,-0.28663430
7808.59375,-0.00061739,-0.29638866
7812.5,-0.00774515,-0.31725475
7816.40625,0.00191474,-0.33231494
7820.3125,-0.01576455,-0.33288214
7824.21875,-0.00579855,-0.32573467
7828.125,0.00518841,-0.32814220
7832.03125,-0.00072057,-0.35072407
7835.9375,-0.01892093,-0.38356429
7839.84375,-0.01684510,-0.40323591
7843.75,-0.02144675,-0.39406040
7847.65625,0.02080786,-0.35831204
7851.5625,-0.01782007,-0.30737641
7855.46875,0.00122625,-0.25245211
7859.375,0.02761924,-0.20433061
7863.28125,0.02188959,-0.16932747
7867.1875,0.02892757,-0.14085104
7871.09375,0.01212796,-0.10495400
7875.0,0.03284274,-0.05876890
7878.90625,0.06721927,-0.01512545
7882.8125,0.03769522,0.01624533
7886.71875,0.05116313,0.04408118
7890.625,0.05087854,0.08516151
7894.53125,0.06307220,0.14267805
7898.4375,0.07605931,0.20036784
7902.34375,0.09597065,0.23973073
7906.25,0.07532071,0.26221728
7910.15625,0.07447344,0.28856733
7914.0625,0.09581830,0.33253962
7917.96875,0.10005961,0.38137159
7921.875,0.11469451,0.40810066
7925.78125,0.10460983,0.39968091
7929.6875,0.08492868,0.36617598
7933.59375,0.09403833,0.32278934
7937.5,0.09412912,0.27207789
7941.40625,0.07669412,0.20823701
7945.3125,0.06110136,0.13038377
7949.21875,0.06497943,0.04552471
7953.125,0.04437598,-0.03618439
7957.03125,0.01838323,-0.10635048
7960.9375,0.04951696,-0.16239099
7964.84375,0.01157811,-0.20747852
7968.75,0.01738588,-0.24669681
7972.65625,0.01282168,-0.28440568
7976.5625,0.00864161,-0.32152328
7980.46875,0.00607566,-0.35263419
7984.375,-0.01027135,-0.36942869
7988.28125,0.01143319,-0.36826217
7992.1875,0.00405761,-0.35123980
7996.09375,0.00320210,-0.32212105
8000.0,0.01490609,-0.28756589
8003.90625,0.01478908,-0.26153380
8007.8125,0.01738717,-0.26117295
8011.71875,0.02338123,-0.29341435
8015.625,0.00655616,-0.34536073
8019.53125,-0.01734281,-0.39202318
8023.4375,0.00367981,-0.41691372
8027.34375,0.00122971,-0.42234758
8031.25,0.00162604,-0.41919422
8035.15625,-0.00724504,-0.41471404
8039.0625,-0.01270892,-0.41543591
8042.96875,0.00349806,-0.43467903
8046.875,-0.00125407,-0.48639306
8050.78125,-0.03595050,-0.56905788
8054.6875,-0.02650632,-0.65709090
8058.59375,-0.04110456,-0.70312995
8062.5,-0.03692671,-0.64474845
8066.40625,0.00621542,-0.41557249
8070.3125,0.06074091,0.03977672
8074.21875,0.15612470,0.75133198
8078.125,0.30054384,1.71055889
8082.03125,0.43811172,2.85821581
8085.9375,0.62481344,4.07991743
8089.84375,0.78278053,5.21998405
8093.75,0.89224100,6.11422873
8097.65625,0.97943336,6.62753820
8101.5625,0.98616958,6.68366385
8105.46875,0.91832876,6.28152609
8109.375,0.81228691,5.49082184
8113.28125,0.67364895,4.42826986
8117.1875,0.51145470,3.22936487
8121.09375,0.32313594,2.02395296
8125.0,0.18452314,0.91427761
8128.90625,0.06469739,-0.03699076
8132.8125,-0.04884558,-0.79982495
8136.71875,-0.13086246,-1.36170411
8140.625,-0.17838773,-1.72149920
8144.53125,-0.19827604,-1.89317548
8148.4375,-0.21332933,-1.90954173
8152.34375,-0.16852871,-1.81775737
8156.25,-0.18057047,-1.66489339
8160.15625,-0.14360939,-1.48458970
8164.0625,-0.11751658,-1.29639053
8167.96875,-0.08396979,-1.11184883
8171.875,-0.07079396,-0.93784994
8175.78125,-0.06034103,-0.78001702
8179.6875,-0.00819393,-0.64636499
8183.59375,-0.01619845,-0.54308480
8187.5,-0.00494109,-0.46682420
8191.40625,0.00211771,-0.40727329
8195.3125,0.01885816,-0.35772020
8199.21875,0.01559331,-0.32024613
8203.125,0.02227818,-0.30263945
8207.03125,0.01944732,-0.31199485
8210.9375,0.01261493,-0.34820211
8214.84375,0.01499858,-0.39943919
8218.75,0.00427065,-0.44218475
8222.65625,-0.00870542,-0.44890222
8226.5625,0.01323023,-0.40381983
8230.46875,0.00497701,-0.31784540
8234.375,0.05088047,-0.22733365
8238.28125,0.04078586,-0.17119098
8242.1875,0.03865660,-0.16445905
8246.09375,0.02084036,-0.19457026
8250.0,0.05532973,-0.23826294
8253.90625,0.01370871,-0.27414694
8257.8125,0.02357349,-0.28428242
8261.71875,0.03302217,-0.25651127
8265.625,0.03563452,-0.18917108
8269.53125,0.05389355,-0.09272438
8273.4375,0.06024799,0.01249288
8277.34375,0.08691201,0.10292321
8281.25,0.08248389,0.16173652
8285.15625,0.09213692,0.18570840
8289.0625,0.08991503,0.18531832
8292.96875,0.09095135,0.18079655
8296.875,0.09269717,0.19528906
8300.78125,0.09139736,0.24339260
8304.6875,0.10795856,0.32019711
8308.59375,0.12297847,0.40376505
8312.5,0.14606380,0.47471848
8316.40625,0.12617634,0.53415519
8320.3125,0.13959263,0.59803158
8324.21875,0.16818920,0.67567450
8328.125,0.16244474,0.75972396
8332.03125,0.18835635,0.83528852
8335.9375,0.18842328,0.89402521
8339.84375,0.19301616,0.94057631
8343.75,0.19426580,0.98743230
8347.65625,0.21682167,1.04325712
8351.5625,0.21626724,1.10627007
8355.46875,0.22401367,1.16702616
8359.375,0.22930017,1.21488404
8363.28125,0.24391688,1.24489725
8367.1875,0.24728715,1.26417005
8371.09375,0.22782457,1.28946126
8375.0,0.24835365,1.33089232
8378.90625,0.25595814,1.37683892
8382.8125,0.26352465,1.40011835
8386.71875,0.25931492,1.38196278
8390.625,0.25029701,1.33026803
8394.53125,0.23097052,1.27419114
8398.4375,0.23140864,1.23927057
8402.34375,0.24671219,1.22680533
8406.25,0.22158410,1.21631587
8410.15625,0.23585044,1.18536031
8414.0625,0.23167802,1.12882757
8417.96875,0.19591255,1.06324494
8421.875,0.20571484,1.00976443
8425.78125,0.19044203,0.96996629
8429.6875,0.20716061,0.92255062
8433.59375,0.18369849,0.84672391
8437.5,0.15819147,0.74517977
8441.40625,0.15982643,0.64190310
8445.3125,0.13457590,0.56061894
8449.21875,0.13452269,0.50576937
8453.125,0.12972468,0.45972249
8457.03125,0.12021540,0.39720416
8460.9375,0.11356240,0.30681643
8464.84375,0.09076665,0.20256768
8468.75,0.07156431,0.11496566
8472.65625,0.08200596,0.06916922
8476.5625,0.06863634,0.06756342
8480.46875,0.06436802,0.08563301
8484.375,0.09229445,0.08312913
8488.28125,0.07493020,0.03163203
8492.1875,0.05366083,-0.05860103
8496.09375,0.03377293,-0.14371143
8500.0,0.03104425,-0.18490347
8503.90625,0.04701764,-0.18137415
8507.8125,0.05196917,-0.16423503
8511.71875,0.03250004,-0.16397582
8515.625,0.03475709,-0.18915591
8519.53125,0.03369151,-0.22959718
8523.4375,0.04122571,-0.26725310
8527.34375,0.00393811,-0.28505942
8531.25,0.02669799,-0.27887732
8535.15625,0.02824237,-0.26521122
8539.0625,0.03353037,-0.26934019
8542.96875,0.02581832,-0.30145130
8546.875,0.00695347,-0.34628966
8550.78125,0.01243515,-0.37686551
8554.6875,0.00047688,-0.37810200
8558.59375,0.02056008,-0.35894144
8562.5,0.02011937,-0.34213802
8566.40625,0.02360417,-0.34042433
8570.3125,0.00554497,-0.34345305
8574.21875,0.00328168,-0.33178291
8578.125,0.03510329,-0.30228990
8582.03125,0.01885665,-0.27385545
8585.9375,0.03753265,-0.26712501
8589.84375,0.02179388,-0.28314456
8593.75,-0.00105531,-0.30547285
8597.65625,0.02613512,-0.32140723
8601.5625,0.03129323,-0.33250746
8605.46875,0.01107803,-0.34235087
8609.375,-0.00658327,-0.34771150
8613.28125,0.02453016,-0.34898731
8617.1875,0.01490456,-0.35634387
8621.09375,0.01996685,-0.37646008
8625.0,-0.01555126,-0.40151805
8628.90625,0.02222673,-0.41760385
8632.8125,-0.01620820,-0.41942069
8636.71875,0.00644763,-0.41404361
8640.625,0.02754708,-0.41031727
8644.53125,-0.00491689,-0.40378258
8648.4375,-0.00532772,-0.37835550
8652.34375,0.01170187,-0.32885763
8656.25,0.03692048,-0.27372807
8660.15625,0.03660959,-0.23804876
8664.0625,0.00998333,-0.23155974
8667.96875,0.02933759,-0.24835724
8671.875,0.02435048,-0.27713779
8675.78125,0.02059495,-0.30278602
8679.6875,0.02177498,-0.30642942
8683.59375,0.00886760,-0.27725115
8687.5,0.02723943,-0.22803690
8691.40625,0.03041590,-0.19400793
8695.3125,0.05015197,-0.20713854
8699.21875,0.02879150,-0.26536146
8703.125,-0.01159203,-0.33112553
8707.03125,0.00343419,-0.36726791
8710.9375,0.02193481,-0.37000012
8714.84375,0.01880785,-0.36040923
8718.75,-0.00429310,-0.35315916
8722.65625,0.01640433,-0.34484074
8726.5625,0.01383078,-0.32589075
8730.46875,0.01758279,-0.29299459
8734.375,0.01675702,-0.25348088
8738.28125,0.02932216,-0.22456771
8742.1875,0.03589633,-0.22454882
8746.09375,0.02657394,-0.25723210
8750.0,0.00509403,-0.30487755
8753.90625,0.00810608,-0.34102225
8757.8125,0.01056678,-0.35161656
8761.71875,0.01788400,-0.34233651
8765.625,0.01348528,-0.32625091
8769.53125,0.01445081,-0.30772638
8773.4375,0.00762444,-0.28149307
8777.34375,0.03012824,-0.24709742
8781.25,0.02899706,-0.21879049
8785.15625,0.03027669,-0.21600977
8789.0625,0.01789981,-0.24448042
8792.96875,0.02436225,-0.28860095
8796.875,0.00801051,-0.32249039
8800.78125,0.00684063,-0.33010367
8804.6875,0.01249504,-0.31693628
8808.59375,0.02607704,-0.30115598
8812.5,0.01730990,-0.29303330
8816.40625,0.00542856,-0.28749818
8820.3125,0.02028832,-0.27776793
8824.21875,0.02428066,-0.26837170
8828.125,0.02119946,-0.26958159
8832.03125,0.01127941,-0.28382763
8835.9375,0.02008453,-0.30136499
8839.84375,0.01428370,-0.30610445
8843.75,0.01546714,-0.28540602
8847.65625,0.01832976,-0.24030258
8851.5625,0.02847526,-0.18940678
8855.46875,0.04136625,-0.15899640
8859.375,0.03819497,-0.16414860
8863.28125,0.02706148,-0.19792511
8867.1875,0.01474734,-0.23953760
8871.09375,0.01587107,-0.27296978
8875.0,0.01641149,-0.29676029
8878.90625,0.03345177,-0.31615192
8882.8125,-0.01352172,-0.33015138
8886.71875,0.02277782,-0.33160537
8890.625,-0.00420432,-0.31908751
8894.53125,0.01967972,-0.30296278
8898.4375,0.03564057,-0.29470435
8902.34375,0.00883386,-0.29027903
8906.25,-0.00761088,-0.27310804
8910.15625,0.03536661,-0.23852442
8914.0625,0.03788792,-0.20430915
8917.96875,0.02581712,-0.18973193
8921.875,0.03491281,-0.19336699
8925.78125,0.01023436,-0.19828354
8929.6875,0.03394952,-0.19356161
8933.59375,0.04029878,-0.18366024
8937.5,0.02758584,-0.17806539
8941.40625,0.02328812,-0.18047130
8945.3125,0.03532571,-0.18988582
8949.21875,0.03351978,-0.20308240
8953.125,0.01095988,-0.21313941
8957.03125,0.03627478,-0.21288916
8960.9375,0.02889780,-0.20190269
8964.84375,0.02187385,-0.18745537
8968.75,0.03562054,-0.17961982
8972.65625,0.03108699,-0.18504338
8976.5625,0.02893766,-0.20324315
8980.46875,0.01389641,-0.23008746
8984.375,0.02999567,-0.26407644
8988.28125,0.00669444,-0.30416080
8992.1875,0.01848110,-0.34103623
8996.09375,-0.00031951,-0.35706070
9000.0,-0.00045270,-0.34047505
9003.90625,0.02531630,-0.29916707
9007.8125,0.01901441,-0.25635454
9011.71875,0.02101366,-0.23256448
9015.625,0.02709738,-0.23317398
9019.53125,0.02419039,-0.24918135
9023.4375,0.00934984,-0.26647010
9027.34375,0.02086274,-0.27705538
9031.25,0.01917107,-0.28319502
9035.15625,0.01372987,-0.29038081
9039.0625,0.01846778,-0.29832223
9042.96875,0.01556947,-0.29954281
9046.875,0.01215650,-0.28581735
9050.78125,0.01592528,-0.25793397
9054.6875,0.02274604,-0.23043440
9058.59375,0.04467405,-0.22210453
9062.5,0.01009991,-0.23756297
9066.40625,0.02615430,-0.26097843
9070.3125,0.00234219,-0.27104786
9074.21875,0.03894454,-0.25981468
9078.125,0.01584909,-0.23627323
9082.03125,0.02150070,-0.21746661
9085.9375,0.03514708,-0.21770929
9089.84375,0.03165329,-0.23838589
9093.75,0.00188122,-0.26458305
9097.65625,0.02642747,-0.27718604
9101.5625,0.01701732,-0.26945761
9105.46875,0.02715565,-0.24960293
9109.375,0.02153417,-0.23099060
9113.28125,0.02851667,-0.22328234
9117.1875,0.02316558,-0.23008405
9121.09375,0.01796103,-0.25087634
9125.0,0.03373946,-0.28179049
9128.90625,0.00106284,-0.31338751
9132.8125,0.01436963,-0.33252618
9136.71875,0.00807337,-0.33201587
9140.625,0.01778758,-0.31805408
9144.53125,0.01432747,-0.30580747
9148.4375,0.01768222,-0.30693483
9152.34375,0.01354482,-0.32021353
9156.25,0.01376545,-0.33342293
9160.15625,-0.00035818,-0.33568692
9164.0625,0.01888750,-0.32830513
9167.96875,0.02300755,-0.32033366
9171.875,0.01211929,-0.31363961
9175.78125,0.01135918,-0.29965115
9179.6875,0.01147369,-0.27457818
9183.59375,0.03932256,-0.25082850
9187.5,0.02139502,-0.24651738
9191.40625,0.02375570,-0.26613036
9195.3125,0.01546125,-0.29558784
9199.21875,0.01302936,-0.31523475
9203.125,0.00844761,-0.31647623
9207.03125,0.03745725,-0.30667338
9210.9375,-0.00149302,-0.29983205
9214.84375,0.02247151,-0.30580956
9218.75,0.01854238,-0.32617241
9222.65625,0.01572172,-0.35227817
9226.5625,-0.00005011,-0.36731640
9230.46875,0.00388337,-0.35787529
9234.375,0.03043983,-0.32509792
9238.28125,0.01029054,-0.28296998
9242.1875,0.02911930,-0.24940319
9246.09375,0.02656095,-0.23935999
9250.0,0.02543020,-0.25805691
9253.90625,0.02756818,-0.29482093
9257.8125,0.00385908,-0.32719564
9261.71875,0.01264488,-0.33714518
9265.625,0.02642743,-0.32465133
9269.53125,0.00308583,-0.30540037
9273.4375,0.03815867,-0.29704535
9277.34375,0.01141648,-0.30630168
9281.25,0.01730851,-0.32574138
9285.15625,0.00572639,-0.34298915
9289.0625,0.02236498,-0.35233623
9292.96875,0.00911703,-0.35550264
9296.875,0.01496078,-0.35470277
9300.78125,0.00415587,-0.35025230
9304.6875,0.03207463,-0.34311926
9308.59375,-0.00185907,-0.33536869
9312.5,0.02311484,-0.32873148
9316.40625,0.02053165,-0.32326594
9320.3125,0.02295182,-0.31563336
9324.21875,0.00550183,-0.30209377
9328.125,0.03026589,-0.28650358
9332.03125,0.02963242,-0.27943721
9335.9375,0.02029792,-0.28511447
9339.84375,0.02263054,-0.29486027
9343.75,0.01771904,-0.29717994
9347.65625,0.02835938,-0.29067916
9351.5625,0.01221632,-0.28580871
9355.46875,0.03064500,-0.29538709
9359.375,0.03136731,-0.31945053
9363.28125,0.01276278,-0.33608586
9367.1875,0.00215993,-0.31453049
9371.09375,0.03704398,-0.24485515
9375.0,0.04217775,-0.15128380
9378.90625,0.06523996,-0.07184070
9382.8125,0.05858010,-0.02653573
9386.71875,0.05979001,-0.00559038
9390.625,0.05771105,0.01598542
9394.53125,0.08134252,0.05730214
9398.4375,0.08354326,0.12347570
9402.34375,0.08487440,0.20754099
9406.25,0.10326016,0.29119694
9410.15625,0.12268186,0.34948510
9414.0625,0.11480664,0.36641684
9417.96875,0.10299059,0.34722614
9421.875,0.11947025,0.31235212
9425.78125,0.10040532,0.28181806
9429.6875,0.09087303,0.26415861
9433.59375,0.11035169,0.25335929
9437.5,0.09111375,0.23475093
9441.40625,0.10340408,0.19745050
9445.3125,0.08549201,0.14316791
9449.21875,0.06356169,0.08226160
9453.125,0.06744497,0.02039355
9457.03125,0.07231437,-0.04737994
9460.9375,0.04706019,-0.12616405
9464.84375,0.02990186,-0.21015343
9468.75,0.02884774,-0.28591391
9472.65625,0.02204203,-0.34093294
9476.5625,0.01347916,-0.36668983
9480.46875,0.00877026,-0.36177340
9484.375,0.02666863,-0.33664843
9488.28125,0.03282632,-0.30912757
9492.1875,0.01357516,-0.29148117
9496.09375,0.02615793,-0.28619885
9500.0,0.02672849,-0.29341269
9503.90625,0.03538472,-0.31384039
9507.8125,0.01246279,-0.34239060
9511.71875,0.01015352,-0.36618263
9515.625,0.01913581,-0.37347895
9519.53125,0.01503888,-0.36365727
9523.4375,0.01729138,-0.34891140
9527.34375,0.02896175,-0.34658137
9531.25,0.00776222,-0.36663166
9535.15625,0.01445934,-0.40518254
9539.0625,-0.00213020,-0.45159173
9542.96875,0.00350016,-0.50077862
9546.875,-0.00971586,-0.55621290
9550.78125,-0.02058572,-0.62041104
9554.6875,-0.02479225,-0.68183738
9558.59375,-0.03382580,-0.70742124
9562.5,-0.01742139,-0.64330900
9566.40625,0.01782663,-0.42220283
9570.3125,0.05340863,0.02293812
9574.21875,0.18456252,0.73783535
9578.125,0.28269204,1.72162366
9582.03125,0.47436306,2.90653348
9585.9375,0.64955693,4.15722990
9589.84375,0.78915143,5.29879475
9593.75,0.91496366,6.16051865
9597.65625,0.97641551,6.61466026
9601.5625,1.00196195,6.60354853
9605.46875,0.89556921,6.15114403
9609.375,0.81055027,5.34904814
9613.28125,0.64999467,4.32056999
9617.1875,0.50845516,3.18484545
9621.09375,0.35509369,2.03940272
9625.0,0.20178875,0.96208543
9628.90625,0.06709307,0.01836858
9632.8125,-0.03889135,-0.74181277
9636.71875,-0.12439281,-1.29774535
9640.625,-0.14837316,-1.66342866
9644.53125,-0.18094738,-1.86994684
9648.4375,-0.20529431,-1.93940020
9652.34375,-0.20247763,-1.88145053
9656.25,-0.17592900,-1.71536863
9660.15625,-0.13003422,-1.48578048
9664.0625,-0.09978843,-1.24921405
9667.96875,-0.06752355,-1.04481077
9671.875,-0.07098991,-0.87978578
9675.78125,-0.04480296,-0.74295020
9679.6875,-0.00720481,-0.62831157
9683.59375,-0.00877972,-0.54210830
9687.5,0.00644783,-0.49082720
9691.40625,-0.01274147,-0.46949291
9695.3125,0.00245596,-0.46327400
9699.21875,0.00911970,-0.45747215
9703.125,0.00666100,-0.44441408
9707.03125,0.00710096,-0.42387018
9710.9375,-0.00655320,-0.40104383
9714.84375,0.03354836,-0.38215220
9718.75,0.01677296,-0.36687538
9722.65625,-0.00131242,-0.34814206
9726.5625,0.03041271,-0.32473022
9730.46875,0.01983579,-0.30812243
9734.375,0.02940958,-0.30921751
9738.28125,0.02053108,-0.32147887
9742.1875,0.01576828,-0.32293275
9746.09375,0.01868909,-0.29590273
9750.0,0.03487830,-0.24354038
9753.90625,0.04337186,-0.18513882
9757.8125,0.04365215,-0.13604088
9761.71875,0.04962350,-0.09559074
9765.625,0.06084402,-0.05455121
9769.53125,0.05481864,-0.00982459
9773.4375,0.06883225,0.03077273
9777.34375,0.07594037,0.05736602
9781.25,0.07248279,0.06922633
9785.15625,0.07482777,0.07611260
9789.0625,0.07772587,0.09205330
9792.96875,0.07612446,0.13052273
9796.875,0.07988238,0.19964206
9800.78125,0.12269053,0.29560846
9804.6875,0.11545714,0.40302387
9808.59375,0.11797515,0.50392407
9812.5,0.15264034,0.58638734
9816.40625,0.15465912,0.64959538
9820.3125,0.15308453,0.70444465
9824.21875,0.17379540,0.76576006
9828.125,0.16871554,0.84071213
9832.03125,0.18440773,0.92329162
9835.9375,0.21077755,0.99948210
9839.84375,0.21010008,1.06051731
9843.75,0.20213014,1.11056697
9847.65625,0.22121918,1.15795445
9851.5625,0.23393443,1.20301712
9855.46875,0.22449884,1.23985744
9859.375,0.22627750,1.26535559
9863.28125,0.25833669,1.28343952
9867.1875,0.23592058,1.30506551
9871.09375,0.22633576,1.34091890
9875.0,0.24561544,1.38576782
9878.90625,0.27209359,1.41449785
9882.8125,0.25191775,1.40361154
9886.71875,0.25456828,1.35615945
9890.625,0.21477935,1.30077159
9894.53125,0.23091778,1.26642847
9898.4375,0.24785122,1.26017344
9902.34375,0.22346580,1.26679921
9906.25,0.23821248,1.26346719
9910.15625,0.22148362,1.23351634
9914.0625,0.21319881,1.17294908
9917.96875,0.22068818,1.08971822
9921.875,0.18605374,0.99812722
9925.78125,0.17764133,0.91095382
9929.6875,0.17538404,0.83374363
9933.59375,0.16734636,0.76659089
9937.5,0.13481674,0.70854115
9941.40625,0.16035350,0.65643746
9945.3125,0.13878140,0.60396534
9949.21875,0.12458855,0.54682726
9953.125,0.12474882,0.48619357
9957.03125,0.10348880,0.42540160
9960.9375,0.11397031,0.36527103
9964.84375,0.09183086,0.30280331
9968.75,0.09164927,0.23399273
9972.65625,0.06470324,0.15864974
9976.5625,0.06477007,0.08301987
9980.46875,0.06577262,0.01818831
9984.375,0.04361781,-0.02503241
9988.28125,0.04115052,-0.04369865
9992.1875,0.04299464,-0.04719737
9996.09375,0.05197078,-0.05077056
10000.0,0.04318270,-0.06265664
10003.90625,0.04074202,-0.07980200
10007.8125,0.02977116,-0.09661160
10011.71875,0.03356108,-0.11481572
10015.625,0.03818455,-0.14252730
10019.53125,0.01899875,-0.18493938
10023.4375,0.01978876,-0.23761337
10027.34375,0.01942958,-0.28673792
10031.25,-0.01348610,-0.31557879
10035.15625,0.00767295,-0.31659380
10039.0625,0.01242010,-0.29937515
10042.96875,0.01517348,-0.28257513
10046.875,0.00115797,-0.27835274
10050.78125,0.01573922,-0.28661233
10054.6875,-0.00449101,-0.30053386
10058.59375,0.00033447,-0.31447291
10062.5,0.02199890,-0.32685336
10066.40625,-0.01496359,-0.33688313
10070.3125,-0.00020904,-0.34274760
10074.21875,-0.00147693,-0.34476364
10078.125,-0.00118131,-0.34640130
10082.03125,-0.00684598,-0.35145822
10085.9375,0.00703756,-0.36152649
10089.84375,-0.01387303,-0.37371397
10093.75,-0.01713839,-0.38085985
10097.65625,0.00423353,-0.37728307
10101.5625,-0.01604469,-0.36460385
10105.46875,0.00254526,-0.35113010
10109.375,-0.00188125,-0.34466842
10113.28125,-0.01054197,-0.34459850
10117.1875,-0.00662550,-0.34316295
10121.09375,-0.00384316,-0.33670908
10125.0,0.00256407,-0.33268967
10128.90625,-0.01056100,-0.34287745
10132.8125,-0.00565697,-0.37054527
10136.71875,-0.02047092,-0.40428290
10140.625,-0.00674009,-0.42278585
10144.53125,-0.02660706,-0.40740159
10148.4375,-0.00430872,-0.35589328
10152.34375,-0.00937281,-0.28788635
10156.25,0.02103269,-0.23435508
10160.15625,0.01119261,-0.21714573
10164.0625,-0.00616127,-0.23773442
10167.96875,0.00686164,-0.28357953
10171.875,-0.00125287,-0.33699349
10175.78125,-0.01856161,-0.37701055
10179.6875,-0.03401759,-0.38700947
10183.59375,0.00820227,-0.36832932
10187.5,-0.00056441,-0.33789754
10191.40625,-0.02882285,-0.31104219
10195.3125,0.00212300,-0.29510221
10199.21875,0.00530285,-0.29455402
10203.125,-0.01398144,-0.30959332
10207.03125,0.00355458,-0.33067298
10210.9375,-0.02667840,-0.34185281
10214.84375,-0.00880595,-0.33237916
10218.75,-0.00588604,-0.30584487
10222.65625,0.00294558,-0.27752072
10226.5625,-0.00178236,-0.26172575
10230.46875,-0.00401837,-0.26134038
10234.375,-0.00014406,-0.26801983
10238.28125,-0.01477623,-0.27155313
10242.1875,0.01067962,-0.26962087
10246.09375,-0.01125941,-0.26833582
10250.0,0.00222675,-0.27306882
10253.90625,-0.00746270,-0.27981672
10257.8125,-0.01048913,-0.27713951
10261.71875,-0.00063036,-0.25831068
10265.625,-0.00241845,-0.23159091
10269.53125,0.00822486,-0.21577825
10273.4375,0.00488238,-0.22353591
10277.34375,-0.01492295,-0.25060797
10281.25,-0.00221500,-0.28266126
10285.15625,-0.00711106,-0.30876979
10289.0625,-0.01799211,-0.32577118
10292.96875,-0.02176027,-0.33498421
10296.875,-0.00561714,-0.33842900
10300.78125,-0.01520242,-0.33546361
10304.6875,-0.02553323,-0.32409856
10308.59375,-0.01014628,-0.30870956
10312.5,-0.00647106,-0.30073687
10316.40625,-0.00804243,-0.30520263
10320.3125,-0.02380045,-0.31163469
10324.21875,-0.01641588,-0.30508378
10328.125,0.00684589,-0.28184041
10332.03125,-0.01892140,-0.25049588
10335.9375,-0.01371962,-0.22547820
10339.84375,0.01773873,-0.22244099
10343.75,-0.00584644,-0.24841879
10347.65625,-0.01616250,-0.29187623
10351.5625,-0.03358060,-0.33071756
10355.46875,-0.00666716,-0.35151872
10359.375,-0.02715106,-0.35532051
10363.28125,-0.01090451,-0.34698400
10367.1875,-0.02111329,-0.32647491
10371.09375,-0.03090805,-0.29311880
10375.0,0.00888405,-0.25476709
10378.90625,-0.01233362,-0.22714081
10382.8125,-0.00014410,-0.22239862
10386.71875,-0.00241710,-0.23934458
10390.625,-0.02015753,-0.26363009
10394.53125,-0.01043627,-0.27759326
10398.4375,-0.01589392,-0.27252159
10402.34375,-0.00014866,-0.25236267
10406.25,-0.00665844,-0.22722754
10410.15625,-0.01618240,-0.20725027
10414.0625,0.00786809,-0.20162535
10417.96875,-0.00591169,-0.21546766
10421.875,-0.00669616,-0.24408072
10425.78125,-0.02173170,-0.27518535
10429.6875,-0.00755017,-0.29858470
10433.59375,-0.03011215,-0.31070277
10437.5,-0.00709071,-0.31110823
10441.40625,-0.02395542,-0.29957104
10445.3125,-0.01062937,-0.27840325
10449.21875,-0.01625522,-0.25587294
10453.125,-0.01028173,-0.24447070
10457.03125,-0.00883011,-0.25368458
10460.9375,-0.01391126,-0.28243807
10464.84375,-0.01399114,-0.31636757
10468.75,-0.03127280,-0.33423245
10472.65625,-0.03629686,-0.32372668
10476.5625,0.00152705,-0.29311478
10480.46875,-0.00681387,-0.26235527
10484.375,-0.03154060,-0.24380691
10488.28125,0.00903102,-0.23667124
10492.1875,-0.02254027,-0.23529871
10496.09375,-0.00792354,-0.23661262
10500.0,-0.00903936,-0.24212416
10503.90625,-0.01292597,-0.25476557
10507.8125,-0.00701298,-0.27264336
10511.71875,-0.03088710,-0.28789070
10515.625,-0.01491863,-0.29402664
10519.53125,-0.01761794,-0.29268992
10523.4375,-0.01360233,-0.29073307
10527.34375,-0.01802646,-0.29197612
10531.25,-0.02252378,-0.29393014
10535.15625,-0.02367514,-0.29180291
10539.0625,-0.00436662,-0.28350517
10542.96875,-0.02523975,-0.27090755
10546.875,-0.01079465,-0.25875771
10550.78125,-0.01102547,-0.25198150
10554.6875,-0.01647814,-0.25117722
10558.59375,-0.01030162,-0.25141153
10562.5,-0.00895516,-0.24736451
10566.40625,-0.02192363,-0.23986371
10570.3125,-0.01158076,-0.23735611
10574.21875,0.00717551,-0.24800561
10578.125,-0.02861784,-0.26788288
10582.03125,-0.01947104,-0.28231159
10585.9375,-0.02511989,-0.28228465
10589.84375,0.00782939,-0.27304262
10593.75,-0.03289760,-0.26489577
10597.65625,-0.01605195,-0.26433972
10601.5625,-0.00505947,-0.27470070
10605.46875,-0.02669912,-0.29560405
10609.375,-0.01798384,-0.31975916
10613.28125,-0.02496568,-0.33554935
10617.1875,-0.03257694,-0.33454925
10621.09375,-0.01741340,-0.31691077
10625.0,-0.01071105,-0.29008061
10628.90625,-0.02147825,-0.26276004
10632.8125,-0.01480707,-0.24207722
10636.71875,-0.00864353,-0.23507237
10640.625,-0.00258842,-0.24703795
10644.53125,-0.03177714,-0.27703232
10648.4375,-0.00969205,-0.31665847
10652.34375,-0.02454620,-0.35102585
10656.25,-0.03976365,-0.36300120
10660.15625,-0.02655312,-0.34550864
10664.0625,-0.00960041,-0.30987537
10667.96875,-0.01366581,-0.27536127
10671.875,-0.03056074,-0.25389069
10675.78125,0.00178853,-0.24936013
10679.6875,-0.01269797,-0.26175547
10683.59375,-0.01840998,-0.28328595
10687.5,-0.02414194,-0.29770648
10691.40625,-0.01269808,-0.29224697
10695.3125,-0.02240588,-0.27036881
10699.21875,-0.00422052,-0.25076881
10703.125,-0.01411319,-0.25234208
10707.03125,-0.01055569,-0.27812010
10710.9375,-0.02164299,-0.31315884
10714.84375,-0.03572679,-0.33834055
10718.75,-0.01176792,-0.34551221
10722.65625,-0.03021811,-0.33948517
10726.5625,-0.01945771,-0.32964009
10730.46875,-0.01840415,-0.32258594
10734.375,-0.02763310,-0.31915325
10738.28125,-0.00769404,-0.31448132
10742.1875,-0.03547610,-0.30281195
10746.09375,-0.00059157,-0.28497067
10750.0,-0.02554549,-0.27016765
10753.90625,-0.00700054,-0.26827350
10757.8125,-0.00310906,-0.27957511
10761.71875,-0.02892760,-0.29363373
10765.625,-0.02745832,-0.30190495
10769.53125,-0.00746817,-0.31006208
10773.4375,-0.01651632,-0.33014283
10777.34375,-0.01780454,-0.35996604
10781.25,-0.04069359,-0.37928531
10785.15625,-0.03849744,-0.37144241
10789.0625,-0.01249305,-0.34390774
10792.96875,-0.00180950,-0.32001585
10796.875,-0.02745345,-0.31259286
10800.78125,-0.02934888,-0.31515321
10804.6875,-0.01654691,-0.31839266
10808.59375,-0.01352373,-0.32343513
10812.5,-0.01236018,-0.33408624
10816.40625,-0.02432327,-0.34434292
10820.3125,-0.04225089,-0.34306520
10824.21875,-0.00155130,-0.33066306
10828.125,-0.02474193,-0.32254782
10832.03125,-0.00359544,-0.33180553
10835.9375,-0.04198208,-0.35302064
10839.84375,-0.01328024,-0.36623850
10843.75,-0.02291069,-0.35432583
10847.65625,-0.02882224,-0.31707713
10851.5625,-0.00283761,-0.27266699
10855.46875,0.00293734,-0.24406864
10859.375,-0.01690828,-0.24025573
10863.28125,0.00102490,-0.25052819
10867.1875,-0.01549261,-0.25486335
10871.09375,-0.00520835,-0.23701517
10875.0,0.00494798,-0.19164950
10878.90625,0.01028306,-0.12406462
10882.8125,0.02934635,-0.04437860
10886.71875,0.01527740,0.03645743
10890.625,0.04951032,0.10488469
10894.53125,0.05791286,0.14689437
10898.4375,0.05200062,0.16108200
10902.34375,0.04809760,0.16693971
10906.25,0.04053209,0.19034754
10910.15625,0.07345533,0.23825632
10914.0625,0.06942896,0.29245773
10917.96875,0.08112298,0.32922757
10921.875,0.06735891,0.34017283
10925.78125,0.07805850,0.33263281
10929.6875,0.07357956,0.31588721
10933.59375,0.06912549,0.29200453
10937.5,0.06575339,0.25760955
10941.40625,0.05821714,0.20952885
10945.3125,0.05807310,0.14789103
10949.21875,0.02876332,0.07593263
10953.125,0.03829167,-0.00090524
10957.03125,0.02366393,-0.07386982
10960.9375,0.00941954,-0.13165401
10964.84375,-0.00406529,-0.16922131
10968.75,0.01933699,-0.19569126
10972.65625,-0.00005967,-0.22632983
10976.5625,-0.01310706,-0.26741681
10980.46875,-0.00939426,-0.31397632
10984.375,-0.01279778,-0.35710773
10988.28125,-0.02106925,-0.38727489
10992.1875,-0.03274770,-0.39715397
10996.09375,-0.01566220,-0.38944495
11000.0,-0.02021583,-0.37893751
11003.90625,-0.02219352,-0.38106138
11007.8125,-0.00754151,-0.39708230
11011.71875,-0.03507436,-0.41141635
11015.625,-0.03099336,-0.40655524
11019.53125,-0.01787868,-0.38280880
11023.4375,-0.00999945,-0.36037993
11027.34375,-0.01280269,-0.35966524
11031.25,-0.01181929,-0.38160378
11035.15625,-0.04750391,-0.40981734
11039.0625,-0.01763142,-0.43153322
11042.96875,-0.02270214,-0.45184082
11046.875,-0.02649113,-0.48487732
11050.78125,-0.05250789,-0.53614789
11054.6875,-0.04885627,-0.59519231
11058.59375,-0.04921490,-0.63387805
11062.5,-0.03536588,-0.59861726
11066.40625,-0.02122981,-0.40622446
11070.3125,0.02324441,0.03474693
11074.21875,0.14098509,0.77793342
11078.125,0.28497952,1.80023825
11082.03125,0.44552380,2.99929261
11085.9375,0.63189572,4.22533560
11089.84375,0.76285791,5.32265568
11093.75,0.87403727,6.15593529
11097.65625,0.94676912,6.61866188
11101.5625,0.96765012,6.64426374
11105.46875,0.89289051,6.22836924
11109.375,0.77873081,5.43766212
11113.28125,0.63232714,4.38692951
11117.1875,0.48965770,3.20458317
11121.09375,0.31157959,2.01252532
11125.0,0.15288553,0.91475594
11128.90625,0.03865925,-0.01815343
11132.8125,-0.06407903,-0.75782019
11136.71875,-0.15698189,-1.30789828
11140.625,-0.18323341,-1.68434358
11144.53125,-0.21549784,-1.90025818
11148.4375,-0.24943356,-1.96421981
11152.34375,-0.23087537,-1.89465332
11156.25,-0.19484040,-1.73277223
11160.15625,-0.16666183,-1.53168964
11164.0625,-0.14747189,-1.33104908
11167.96875,-0.12787637,-1.14579785
11171.875,-0.08772602,-0.97532433
11175.78125,-0.09102037,-0.81766880
11179.6875,-0.04589119,-0.67811584
11183.59375,-0.04175559,-0.56904656
11187.5,-0.03144310,-0.50152785
11191.40625,-0.03286168,-0.47570297
11195.3125,-0.01137213,-0.47663021
11199.21875,-0.04626296,-0.47845078
11203.125,-0.02716938,-0.45898229
11207.03125,-0.00870647,-0.41571841
11210.9375,-0.02278406,-0.36628798
11214.84375,0.00399237,-0.33212158
11218.75,-0.00713161,-0.32078952
11222.65625,-0.01991979,-0.32239297
11226.5625,0.00377149,-0.32278317
11230.46875,-0.00875875,-0.31764555
11234.375,0.00116968,-0.31103763
11238.28125,-0.01084417,-0.30496973
11242.1875,-0.00817640,-0.29677871
11246.09375,0.01015267,-0.28414500
11250.0,0.00605429,-0.26478386
11253.90625,-0.00062058,-0.23201083
11257.8125,0.00178774,-0.18134341
11261.71875,0.02418221,-0.12497663
11265.625,0.04204169,-0.08935142
11269.53125,0.01636160,-0.08921964
11273.4375,0.03993029,-0.10565370
11277.34375,0.00343232,-0.09593988
11281.25,0.02793540,-0.03070496
11285.15625,0.05931140,0.07813412
11289.0625,0.07748941,0.19008239
11292.96875,0.06717851,0.27394378
11296.875,0.08107244,0.32703933
11300.78125,0.08620758,0.36423996
11304.6875,0.10393000,0.40175033
11308.59375,0.08823892,0.45027736
11312.5,0.11793755,0.51184970
11316.40625,0.11471340,0.57952487
11320.3125,0.12536971,0.64425826
11324.21875,0.13885379,0.70313507
11328.125,0.14590821,0.76068681
11332.03125,0.14849600,0.82429105
11335.9375,0.16356102,0.89904088
11339.84375,0.16400908,0.98464078
11343.75,0.20096140,1.07499361
11347.65625,0.19934870,1.16100204
11351.5625,0.19317952,1.23361754
11355.46875,0.22325146,1.28476715
11359.375,0.22518630,1.31129289
11363.28125,0.22042623,1.32132769
11367.1875,0.21210572,1.33053303
11371.09375,0.22434950,1.34771299
11375.0,0.22994269,1.36836970
11378.90625,0.24049684,1.38488281
11382.8125,0.22173409,1.39705706
11386.71875,0.21599005,1.40589607
11390.625,0.24772078,1.40153754
11394.53125,0.23386200,1.37005734
11398.4375,0.21706009,1.31428313
11402.34375,0.19750731,1.25686574
11406.25,0.20844010,1.21773851
11410.15625,0.20942117,1.19418347
11414.0625,0.19794646,1.16541374
11417.96875,0.19101273,1.11227405
11421.875,0.17350127,1.03113782
11425.78125,0.17781603,0.93372035
11429.6875,0.14818859,0.83797193
11433.59375,0.14091925,0.75775570
11437.5,0.13085897,0.69599068
11441.40625,0.11973809,0.64349449
11445.3125,0.14115077,0.58468294
11449.21875,0.08865473,0.50814062
11453.125,0.10246468,0.41490287
11457.03125,0.07910285,0.31884238
11460.9375,0.06746313,0.23988198
11464.84375,0.07517888,0.19317310
11468.75,0.04752574,0.17879692
11472.65625,0.05758085,0.17803672
11476.5625,0.07887134,0.16220863
11480.46875,0.04371459,0.11253991
11484.375,0.04433641,0.03430052
11488.28125,0.02312414,-0.04865631
11492.1875,0.03371578,-0.11037748
11496.09375,0.00547119,-0.13640985
11500.0,0.02109442,-0.13180186
11503.90625,0.01335338,-0.12084749
11507.8125,0.03709364,-0.13242464
11511.71875,0.00704712,-0.17736249
11515.625,0.00090846,-0.23822948
11519.53125,-0.00396243,-0.28276592
11523.4375,-0.01379255,-0.29008266
11527.34375,0.00769608,-0.26792854
11531.25,0.01411594,-0.24508251
11535.15625,-0.00903217,-0.24478543
11539.0625,0.00261070,-0.26683456
11542.96875,-0.01113941,-0.29576108
11546.875,-0.00302323,-0.32054132
11550.78125,-0.00310033,-0.34125900
11554.6875,-0.02627319,-0.36026984
11558.59375,-0.01892816,-0.37564731
11562.5,0.00101995,-0.38440141
11566.40625,-0.03322041,-0.38601539
11570.3125,-0.01066698,-0.38193876
11574.21875,-0.01506260,-0.37418032
11578.125,-0.02219552,-0.36468765
11582.03125,-0.01062791,-0.35666901
11585.9375,-0.00761941,-0.35387531
11589.84375,-0.00489829,-0.35449475
11593.75,-0.04278102,-0.35085034
11597.65625,0.00872244,-0.34084639
11601.5625,-0.01702452,-0.33252922
11605.46875,0.00117862,-0.33057025
11609.375,-0.01268539,-0.32491946
11613.28125,-0.01812444,-0.30153295
11617.1875,-0.01187390,-0.26366523
11621.09375,0.02691416,-0.23395279
11625.0,0.00778829,-0.22997677
11628.90625,-0.01501712,-0.24582365
11632.8125,-0.00805812,-0.26566556
11636.71875,0.00275315,-0.28537956
11640.625,-0.00363724,-0.30916038
11644.53125,-0.00948793,-0.33221772
11648.4375,-0.01265217,-0.33924013
11652.34375,-0.02319707,-0.32041004
11656.25,-0.00120416,-0.28408200
11660.15625,0.00310656,-0.25157201
11664.0625,0.01673760,-0.23903903
11667.96875,-0.01644404,-0.24560247
11671.875,-0.00199582,-0.26048860
11675.78125,-0.01007956,-0.27855536
11679.6875,0.00547684,-0.30315149
11683.59375,-0.01066453,-0.33355668
11687.5,-0.01714292,-0.35620579
11691.40625,-0.02953343,-0.35466453
11695.3125,-0.00058854,-0.32736963
11699.21875,-0.00712707,-0.28987890
11703.125,0.00453422,-0.25962883
11707.03125,-0.01543832,-0.24393646
11710.9375,0.02238236,-0.24142559
11714.84375,-0.01710764,-0.24731342
11718.75,-0.00234843,-0.25699326
11722.65625,-0.00341473,-0.26975051
11726.5625,0.00495989,-0.28799137
11730.46875,-0.01015332,-0.30992272
11734.375,-0.01906013,-0.32614556
11738.28125,-0.01980411,-0.32732406
11742.1875,0.00192587,-0.31405902
11746.09375,-0.00647738,-0.29668793
11750.0,-0.00349940,-0.28615355
11753.90625,-0.01729273,-0.28680864
11757.8125,-0.00573197,-0.29650867
11761.71875,-0.00468319,-0.30947247
11765.625,0.00020209,-0.31708777
11769.53125,-0.02462264,-0.31085393
11773.4375,-0.01617474,-0.29202771
11777.34375,0.01389722,-0.27674976
11781.25,-0.01145321,-0.28341112
11785.15625,-0.00762924,-0.31355926
11789.0625,-0.01128682,-0.34794903
11792.96875,-0.02435069,-0.36101133
11796.875,-0.01918228,-0.34171754
11800.78125,-0.00170855,-0.30497390
11804.6875,-0.01410512,-0.28174034
11808.59375,0.01840260,-0.29302210
11812.5,-0.02378389,-0.33000392
11816.40625,-0.02899639,-0.36085352
11820.3125,-0.01027400,-0.35960543
11824.21875,-0.01996703,-0.32821748
11828.125,0.01123370,-0.29165319
11832.03125,-0.01033056,-0.27376699
11835.9375,0.00109895,-0.27630517
11839.84375,-0.02200116,-0.27984008
11843.75,0.00306881,-0.26622781
11847.65625,0.00286252,-0.23862436
11851.5625,0.01017934,-0.21665014
11855.46875,-0.00194458,-0.21426843
11859.375,0.00173244,-0.22748086
11863.28125,-0.00234847,-0.24303126
11867.1875,0.00685721,-0.25303754
11871.09375,-0.00907124,-0.25861397
11875.0,0.00253270,-0.26388776
11878.90625,-0.01071586,-0.27105057
11882.8125,0.00470990,-0.27944964
11886.71875,-0.00697551,-0.28589410
11890.625,-0.01132915,-0.28779835
11894.53125,-0.01155636,-0.28933758
11898.4375,0.01435795,-0.29959267
11902.34375,-0.02187132,-0.31915954
11906.25,-0.02084820,-0.33484873
11910.15625,0.00470968,-0.33295012
11914.0625,-0.01476614,-0.31184971
11917.96875,-0.00828737,-0.28104049
11921.875,-0.00849401,-0.25539058
11925.78125,0.02490547,-0.24797292
11929.6875,-0.01040408,-0.25994161
11933.59375,-0.01087062,-0.27895007
11937.5,-0.00675222,-0.29163355
11941.40625,0.00082486,-0.29362893
11945.3125,0.00418041,-0.28617045
11949.21875,-0.01935390,-0.27153981
11953.125,0.00379106,-0.25563487
11957.03125,0.02200547,-0.24607584
11960.9375,-0.02275459,-0.24404141
11964.84375,0.00573210,-0.24675040
11968.75,0.00817935,-0.25711548
11972.65625,0.00092700,-0.27834120
11976.5625,-0.00315473,-0.30048722
11980.46875,-0.02894368,-0.30629015
11984.375,0.01384083,-0.29230338
11988.28125,-0.00432814,-0.27497011
11992.1875,-0.00278689,-0.27330917
11996.09375,0.01453962,-0.28929037
12000.0,-0.02815254,-0.30485076
12003.90625,-0.00076303,-0.29760519
12007.8125,0.00733076,-0.26100579
12011.71875,0.00894148,-0.20985442
12015.625,0.00773524,-0.16920950
12019.53125,0.02502508,-0.15883811
12023.4375,0.00408124,-0.18223909
12027.34375,0.01302622,-0.22528853
12031.25,0.01019945,-0.26450378
12035.15625,-0.01671186,-0.28025249
12039.0625,-0.00802840,-0.27079463
12042.96875,0.02631564,-0.25590780
12046.875,-0.00181659,-0.25947499
12050.78125,0.00077537,-0.28673300
12054.6875,-0.01410573,-0.32191235
12058.59375,-0.00229302,-0.34487879
12062.5,-0.01381158,-0.34669212
12066.40625,-0.00523727,-0.33257028
12070.3125,0.00883683,-0.31258830
12074.21875,-0.00765743,-0.28998283
12078.125,-0.00493864,-0.26197711
12082.03125,0.01861595,-0.23184437
12085.9375,0.00832686,-0.21282271
12089.84375,0.00899676,-0.21784160
12093.75,0.01485984,-0.24858454
12097.65625,-0.00356693,-0.29258525
12101.5625,-0.00151707,-0.32870609
12105.46875,-0.02141372,-0.34048364
12109.375,0.01221173,-0.32836977
12113.28125,0.00104521,-0.30647299
12117.1875,0.00359997,-0.28686801
12121.09375,-0.00930795,-0.27272207
12125.0,0.01133098,-0.26699844
12128.90625,0.01153162,-0.27749836
12132.8125,0.00631227,-0.30587652
12136.71875,-0.01481507,-0.33720958
12140.625,-0.00573587,-0.34928346
12144.53125,0.00408024,-0.33298132
12148.4375,-0.00543153,-0.30126968
12152.34375,0.00936610,-0.27897459
12156.25,0.01692501,-0.28168032
12160.15625,-0.00409217,-0.30003715
12164.0625,0.00291664,-0.30621904
12167.96875,-0.00301180,-0.28036290
12171.875,0.01770475,-0.23190023
12175.78125,0.01621106,-0.19443923
12179.6875,0.03750965,-0.19731729
12183.59375,0.00577356,-0.23851061
12187.5,-0.00540251,-0.28593835
12191.40625,0.01083849,-0.30711019
12195.3125,0.00325142,-0.29602367
12199.21875,0.00845177,-0.27298844
12203.125,0.02120212,-0.26362613
12207.03125,0.00297518,-0.27756771
12210.9375,0.01518572,-0.30310869
12214.84375,-0.01876984,-0.32099465
12218.75,0.01944826,-0.32246110
12222.65625,0.00848233,-0.31214422
12226.5625,0.00411821,-0.29759648
12230.46875,0.00110783,-0.28403610
12234.375,0.02422994,-0.27712634
12238.28125,0.00127368,-0.28061914
12242.1875,0.02268818,-0.28933737
12246.09375,0.00150837,-0.29038152
12250.0,0.00826741,-0.27548215
12253.90625,0.01209915,-0.25276694
12257.8125,0.03225296,-0.24282072
12261.71875,0.01107142,-0.25910300
12265.625,0.01104127,-0.29292071
12269.53125,0.00751902,-0.31915280
12273.4375,0.00482516,-0.31710929
12277.34375,0.00128458,-0.28957906
12281.25,0.03037986,-0.26321507
12285.15625,0.02643513,-0.26440930
12289.0625,0.00066470,-0.29248035
12292.96875,0.01096196,-0.32196125
12296.875,-0.00497135,-0.33130747
12300.78125,0.02056519,-0.32271004
12304.6875,0.01763919,-0.31228909
12308.59375,0.01087522,-0.30794227
12312.5,-0.00002335,-0.30447328
12316.40625,0.01900847,-0.29840094
12320.3125,0.01740305,-0.29781407
12324.21875,0.00806821,-0.31401634
12328.125,0.01934711,-0.34694645
12332.03125,-0.00526291,-0.37970960
12335.9375,0.00417170,-0.38786164
12339.84375,0.00060255,-0.35885978
12343.75,0.01427982,-0.30565906
12347.65625,0.03412905,-0.25850788
12351.5625,0.01629088,-0.23947051
12355.46875,0.03143650,-0.24391164
12359.375,0.02008381,-0.24612558
12363.28125,0.01894376,-0.22229700
12367.1875,0.04010539,-0.17054324
12371.09375,0.03942657,-0.11235777
12375.0,0.05577398,-0.07509612
12378.90625,0.05710685,-0.06916056
12382.8125,0.04309768,-0.07837595
12386.71875,0.03031578,-0.07468785
12390.625,0.07096528,-0.04381723
12394.53125,0.06373867,0.00803933
12398.4375,0.06925845,0.07113054
12402.34375,0.07612383,0.14505200
12406.25,0.09296510,0.23127981
12410.15625,0.10372099,0.31883219
12414.0625,0.11004744,0.38244671
12417.96875,0.13657321,0.39863193
12421.875,0.09762273,0.36616391
12425.78125,0.11025249,0.30877203
12429.6875,0.09184187,0.25552237
12433.59375,0.08961273,0.21913768
12437.5,0.09582283,0.19160317
12441.40625,0.09253818,0.15730570
12445.3125,0.06397877,0.10895042
12449.21875,0.08478121,0.05220130
12453.125,0.05163706,-0.00115688
12457.03125,0.06642389,-0.04362262
12460.9375,0.04702551,-0.07898656
12464.84375,0.05200635,-0.11983822
12468.75,0.04225430,-0.17619474
12472.65625,0.02720118,-0.24599579
12476.5625,0.03240005,-0.31550452
12480.46875,0.00735201,-0.36687735
12484.375,0.00535219,-0.38825184
12488.28125,0.01476529,-0.38205722
12492.1875,0.03408513,-0.36284587
12496.09375,0.00762417,-0.34513366
12500.0,0.00868713,-0.33700907
12503.90625,0.03536854,-0.34336299
12507.8125,0.01560304,-0.36451507
12511.71875,0.01491202,-0.39023042
12515.625,0.00220970,-0.40448973
12519.53125,0.01549722,-0.39944246
12523.4375,0.02186129,-0.38097546
12527.34375,0.01397858,-0.36091661
12531.25,0.02350601,-0.34775445
12535.15625,0.01739829,-0.34495467
12539.0625,0.02401194,-0.35450795
12542.96875,0.01726989,-0.38035688
12546.875,-0.00112706,-0.42963433
12550.78125,0.00122194,-0.50877994
12554.6875,0.00195985,-0.60859489
12558.59375,-0.02219356,-0.68362480
12562.5,-0.03372740,-0.64999956
12566.40625,0.01344480,-0.41566867
12570.3125,0.07206796,0.07828251
12574.21875,0.20692976,0.83815980
12578.125,0.32194257,1.82603824
12582.03125,0.46175271,2.97152686
12585.9375,0.64257658,4.16884279
12589.84375,0.81846619,5.27634144
12593.75,0.90789998,6.14035845
12597.65625,0.98418283,6.63179159
12601.5625,0.99568844,6.67385864
12605.46875,0.93646413,6.25779772
12609.375,0.81985688,5.44595814
12613.28125,0.67974043,4.35712719
12617.1875,0.49435118,3.13718796
12621.09375,0.33780456,1.92527473
12625.0,0.18571132,0.82668722
12628.90625,0.06102464,-0.09743816
12632.8125,-0.03973709,-0.82295245
12636.71875,-0.10935709,-1.34814179
12640.625,-0.16113780,-1.68321848
12644.53125,-0.18725088,-1.84864199
12648.4375,-0.18448459,-1.87715936
12652.34375,-0.16982095,-1.80896807
12656.25,-0.15017861,-1.67857659
12660.15625,-0.15001775,-1.50712085
12664.0625,-0.10484705,-1.30960917
12667.96875,-0.07080294,-1.10530066
12671.875,-0.05757519,-0.91685551
12675.78125,-0.02740531,-0.76261401
12679.6875,-0.01879979,-0.65129858
12683.59375,0.00089890,-0.57988834
12687.5,-0.01303562,-0.53590697
12691.40625,0.01676638,-0.50484478
12695.3125,0.00938745,-0.47530225
12699.21875,0.00893137,-0.43889987
12703.125,0.01592205,-0.39285377
12707.03125,0.03266609,-0.34543628
12710.9375,0.03327955,-0.31391501
12714.84375,0.02604561,-0.31365898
12718.75,0.03460234,-0.34691706
12722.65625,0.02065228,-0.39692500
12726.5625,0.01207544,-0.43281397
12730.46875,0.00630823,-0.42901921
12734.375,0.03023245,-0.38557750
12738.28125,0.03102403,-0.32696196
12742.1875,0.03567586,-0.27974874
12746.09375,0.03882420,-0.25252911
12750.0,0.05573872,-0.23363075
12753.90625,0.03354423,-0.20478760
12757.8125,0.03914502,-0.16172683
12761.71875,0.07567790,-0.12304562
12765.625,0.06657279,-0.11093934
12769.53125,0.05882924,-0.12189078
12773.4375,0.04353880,-0.12530299
12777.34375,0.06378426,-0.09267760
12781.25,0.07611621,-0.02152807
12785.15625,0.08632119,0.06836298
12789.0625,0.09693635,0.15321808
12792.96875,0.09967819,0.21816753
12796.875,0.12430338,0.26197276
12800.78125,0.10480285,0.29730237
12804.6875,0.12444423,0.34382054
12808.59375,0.12877436,0.41523701
12812.5,0.15549067,0.51203382
12816.40625,0.15775238,0.62529439
12820.3125,0.17459089,0.74170905
12824.21875,0.17554541,0.84286767
12828.125,0.22904259,0.90952688
12832.03125,0.20189396,0.93845552
12835.9375,0.19317241,0.95228577
12839.84375,0.21073723,0.98247015
12843.75,0.21413971,1.04208052
12847.65625,0.23566315,1.11834407
12851.5625,0.24521160,1.18854570
12855.46875,0.24445318,1.24039185
12859.375,0.24322036,1.27712679
12863.28125,0.24203677,1.30389631
12867.1875,0.27307111,1.31569052
12871.09375,0.27005032,1.30706799
12875.0,0.22333346,1.28880560
12878.90625,0.26012364,1.28162014
12882.8125,0.24905379,1.29339850
12886.71875,0.25341383,1.31155860
12890.625,0.27604145,1.31846416
12894.53125,0.23895420,1.30876613
12898.4375,0.23596548,1.28781199
12902.34375,0.27292791,1.25797987
12906.25,0.23198488,1.21685541
12910.15625,0.22832556,1.16611695
12914.0625,0.23767194,1.11178374
12917.96875,0.21004090,1.05685973
12921.875,0.20829512,0.99775934
12925.78125,0.20210706,0.92702681
12929.6875,0.20703621,0.84267509
12933.59375,0.16148685,0.75619525
12937.5,0.16147569,0.68403947
12941.40625,0.16048975,0.62897104
12945.3125,0.16353366,0.57705116
12949.21875,0.13557757,0.51447868
12953.125,0.13968354,0.44218755
12957.03125,0.11905102,0.37465850
12960.9375,0.11184335,0.32808521
12964.84375,0.12356828,0.30709895
12968.75,0.09751777,0.29814339
12972.65625,0.12835985,0.27562842
12976.5625,0.09003034,0.21870776
12980.46875,0.09256934,0.12618542
12984.375,0.08175407,0.01800797
12988.28125,0.04842079,-0.07723355
12992.1875,0.04330257,-0.14125878
12996.09375,0.06276479,-0.17671441
13000.0,0.03921092,-0.19753641
13003.90625,0.04188202,-0.21097696
13007.8125,0.04078263,-0.21392184
13011.71875,0.03055540,-0.20492122
13015.625,0.05284414,-0.19402152
13019.53125,0.04540376,-0.19696909
13023.4375,0.03586209,-0.21987739
13027.34375,0.03848360,-0.25291005
13031.25,0.01910154,-0.28023139
13035.15625,0.03893743,-0.29410148
13039.0625,0.01690128,-0.29843998
13042.96875,0.04468697,-0.30040184
13046.875,0.01694893,-0.30174479
13050.78125,0.01745643,-0.30129096
13054.6875,0.03736653,-0.30251235
13058.59375,0.03056600,-0.31061956
13062.5,0.01079630,-0.32296124
13066.40625,0.02906128,-0.33023405
13070.3125,0.02143937,-0.32618552
13074.21875,0.02135792,-0.31139272
13078.125,0.02831967,-0.29141834
13082.03125,0.02807647,-0.27540639
13085.9375,0.03272878,-0.27261025
13089.84375,0.02614532,-0.28503707
13093.75,0.02415419,-0.30297446
13097.65625,0.01891520,-0.30999973
13101.5625,0.03800161,-0.29406270
13105.46875,0.01061436,-0.25665686
13109.375,0.04284754,-0.21505794
13113.28125,0.04604496,-0.19208489
13117.1875,0.04583416,-0.19555756
13121.09375,0.01811319,-0.20891942
13125.0,0.04499395,-0.20825212
13128.90625,0.03348757,-0.18818721
13132.8125,0.03254449,-0.16989504
13136.71875,0.05917458,-0.18434554
13140.625,0.02199981,-0.24370110
13144.53125,0.02647501,-0.32519913
13148.4375,0.00448303,-0.38525426
13152.34375,-0.00711981,-0.39400876
13156.25,0.02298918,-0.35975784
13160.15625,0.02465303,-0.31969064
13164.0625,0.02793903,-0.30445707
13167.96875,0.02309022,-0.31137195
13171.875,-0.00449953,-0.31350583
13175.78125,0.02387242,-0.29464006
13179.6875,0.03281412,-0.27039295
13183.59375,0.03817682,-0.27045691
13187.5,0.00787354,-0.30473745
13191.40625,0.00851254,-0.35377771
13195.3125,0.01083534,-0.38838446
13199.21875,0.01144886,-0.39170668
13203.125,-0.00038159,-0.36784101
13207.03125,0.01080670,-0.33892301
13210.9375,0.03799156,-0.32949111
13214.84375,0.00620066,-0.34327069
13218.75,-0.00358366,-0.35848990
13222.65625,0.01549417,-0.35328412
13226.5625,0.01268522,-0.33073372
13230.46875,0.02687324,-0.31309897
13234.375,0.00973755,-0.31586197
13238.28125,0.01643363,-0.33222845
13242.1875,0.00846907,-0.34165871
13246.09375,0.00681568,-0.33114731
13250.0,0.02289852,-0.30739200
13253.90625,0.01987304,-0.28791818
13257.8125,0.01770360,-0.28225008
13261.71875,0.02452134,-0.28461802
13265.625,0.00832189,-0.28433746
13269.53125,0.01842842,-0.28036669
13273.4375,0.02059879,-0.28282472
13277.34375,0.03229457,-0.29818615
13281.25,-0.00471250,-0.31662059
13285.15625,0.01374232,-0.32026726
13289.0625,0.02331048,-0.30211833
13292.96875,0.01091538,-0.27260122
13296.875,0.01889785,-0.25270396
13300.78125,0.02599148,-0.26292926
13304.6875,0.02345149,-0.30843106
13308.59375,-0.00310750,-0.36765084
13312.5,0.00306797,-0.40152925
13316.40625,-0.01642603,-0.38283518
13320.3125,0.02530074,-0.32033771
13324.21875,0.01992723,-0.25367752
13328.125,0.03351752,-0.22214167
13332.03125,0.01789189,-0.23587210
13335.9375,0.00345054,-0.27392945
13339.84375,0.03004127,-0.30512995
13343.75,0.00120401,-0.30920821
13347.65625,0.01697984,-0.28576642
13351.5625,0.01445717,-0.25242954
13355.46875,0.02623071,-0.23343553
13359.375,0.02777427,-0.24226794
13363.28125,0.01165576,-0.27120745
13367.1875,0.00786998,-0.29778793
13371.09375,0.01602315,-0.30135477
13375.0,0.00959610,-0.27474400
13378.90625,0.02793173,-0.22640686
13382.8125,0.02096926,-0.17760302
13386.71875,0.03314276,-0.15456156
13390.625,0.04771150,-0.17200211
13394.53125,0.00578882,-0.21821165
13398.4375,0.00889621,-0.26268503
13402.34375,0.02183809,-0.28278700
13406.25,0.02084304,-0.27789494
13410.15625,0.01176014,-0.26060557
13414.0625,-0.00482062,-0.24679804
13417.96875,0.04642302,-0.25145063
13421.875,0.01672048,-0.27638552
13425.78125,0.00154099,-0.30083925
13429.6875,-0.01338962,-0.30061471
13433.59375,0.03237344,-0.27833757
13437.5,0.01937538,-0.26104167
13441.40625,0.01536382,-0.26782009
13445.3125,0.00270832,-0.29132637
13449.21875,0.01390706,-0.30923337
13453.125,0.01037689,-0.30423635
13457.03125,-0.01515222,-0.27699932
13460.9375,0.04720948,-0.24760979
13464.84375,0.02013442,-0.23808493
13468.75,0.01060180,-0.24813788
13472.65625,0.00298196,-0.25655434
13476.5625,0.00726239,-0.24914093
13480.46875,0.04376927,-0.23434564
13484.375,0.01916885,-0.22700271
13488.28125,-0.00181723,-0.22852007
13492.1875,0.02498504,-0.23124845
13496.09375,0.02015261,-0.23238099
13500.0,0.02041386,-0.23462126
13503.90625,0.01236289,-0.24040304
13507.8125,0.01181851,-0.25224718
13511.71875,0.01636870,-0.27345675
13515.625,0.01114383,-0.30243206
13519.53125,-0.00347510,-0.32910734
13523.4375,0.00138524,-0.34197870
13527.34375,0.01351093,-0.33716065
13531.25,-0.00604735,-0.31847197
13535.15625,0.01158863,-0.29309750
13539.0625,0.00927552,-0.26962793
13542.96875,0.02190398,-0.25499687
13546.875,0.01489382,-0.24923648
13550.78125,0.00923579,-0.24593368
13554.6875,0.00916510,-0.24175513
13558.59375,0.01787968,-0.24459404
13562.5,0.02391635,-0.26768002
13566.40625,-0.00052723,-0.31373435
13570.3125,-0.00618888,-0.36651379
13574.21875,0.00324240,-0.39750746
13578.125,-0.01579311,-0.38219956
13582.03125,0.00256277,-0.31883428
13585.9375,0.02206004,-0.23698691
13589.84375,0.02375570,-0.18117076
13593.75,0.03038526,-0.17813765
13597.65625,0.01248915,-0.21801159
13601.5625,0.01347271,-0.26561269
13605.46875,0.00432494,-0.28901806
13609.375,0.00505631,-0.28144443
13613.28125,0.01477014,-0.26205254
13617.1875,0.02221276,-0.25619519
13621.09375,0.01627024,-0.27131364
13625.0,-0.01359052,-0.29257998
13628.90625,0.01686020,-0.30233848
