rel_ms,value_mv,normalized
0.0,-0.02085920,-0.16912064
3.90625,-0.01591700,-0.23119462
7.8125,-0.01608785,-0.26255652
11.71875,-0.00385127,-0.26518324
15.625,-0.02726015,-0.24686846
19.53125,-0.00165327,-0.21389291
23.4375,-0.01075061,-0.17300744
27.34375,0.01158197,-0.13415466
31.25,0.01246352,-0.10794594
35.15625,0.01781100,-0.09961875
39.0625,0.01043606,-0.10527909
42.96875,0.00071252,-0.11571872
46.875,0.01178882,-0.12477110
50.78125,0.01965942,-0.13185115
54.6875,-0.00612719,-0.13700058
58.59375,0.00916239,-0.13908826
62.5,0.00144826,-0.14002731
66.40625,0.01936263,-0.14467722
70.3125,-0.00783830,-0.15430865
74.21875,-0.00129219,-0.16485952
78.125,0.00679628,-0.17280984
82.03125,0.00566729,-0.17802204
85.9375,-0.01698176,-0.18050952
89.84375,0.00713503,-0.17923717
93.75,0.00151264,-0.17442903
97.65625,0.00017897,-0.16846530
101.5625,0.00131354,-0.16495484
105.46875,0.00592592,-0.16736722
109.375,-0.01837751,-0.17751631
113.28125,0.02216968,-0.19354334
117.1875,-0.00667650,-0.20669381
121.09375,-0.02311504,-0.20303485
125.0,0.00291811,-0.17568889
128.90625,0.02151186,-0.13513789
132.8125,-0.00208098,-0.10393190
136.71875,0.02287751,-0.10214840
140.625,0.02306533,-0.13375780
144.53125,-0.00585110,-0.18019459
148.4375,-0.02496029,-0.21246390
152.34375,-0.01008172,-0.21772964
156.25,0.01910879,-0.20949845
160.15625,-0.00482271,-0.20648172
164.0625,-0.01303082,-0.20893015
167.96875,-0.01083645,-0.20241176
171.875,0.00533642,-0.17878436
175.78125,0.00513913,-0.14694469
179.6875,0.01603493,-0.12553892
183.59375,0.01755675,-0.12787640
187.5,-0.00538129,-0.15184180
191.40625,0.00404191,-0.18266165
195.3125,-0.00756710,-0.20468432
199.21875,0.00701968,-0.20957522
203.125,-0.00753366,-0.19582327
207.03125,-0.00801298,-0.16640407
210.9375,0.03198727,-0.12865172
214.84375,0.00701079,-0.09300596
218.75,0.01445594,-0.07089669
222.65625,0.03731040,-0.07216796
226.5625,0.01639844,-0.09764531
230.46875,0.00571356,-0.13286510
234.375,0.00785298,-0.15599844
238.28125,-0.00162164,-0.15534626
242.1875,0.02055841,-0.13817227
246.09375,0.00357680,-0.12315347
250.0,0.02880662,-0.12432437
253.90625,0.00362980,-0.13971914
257.8125,0.00363637,-0.15430039
261.71875,0.00295996,-0.15508826
265.625,0.01561315,-0.14318801
269.53125,0.01046010,-0.13006096
273.4375,0.02478578,-0.12368224
277.34375,0.00179981,-0.12126747
281.25,0.01203396,-0.11595934
285.15625,0.03191742,-0.10676378
289.0625,0.00588774,-0.09931582
292.96875,0.01527377,-0.10092419
296.875,0.02785469,-0.11628810
300.78125,0.01574248,-0.14137046
304.6875,0.00159455,-0.16044895
308.59375,-0.01543660,-0.15782247
312.5,0.03811936,-0.13470843
316.40625,0.01461827,-0.10812336
320.3125,0.02454009,-0.09340615
324.21875,0.00343868,-0.09463893
328.125,0.03025637,-0.11004058
332.03125,0.01307737,-0.13751593
335.9375,0.00438324,-0.17428672
339.84375,-0.01223587,-0.21851885
343.75,-0.00480045,-0.27279031
347.65625,-0.02517641,-0.33962387
351.5625,-0.03270974,-0.40994000
355.46875,-0.05701714,-0.45763651
359.375,-0.04187106,-0.44600189
363.28125,-0.01618081,-0.33766273
367.1875,0.00806168,-0.10184211
371.09375,0.09291571,0.27790886
375.0,0.19677876,0.79603493
378.90625,0.30428287,1.42298281
382.8125,0.43130210,2.10706878
386.71875,0.55939925,2.77704763
390.625,0.68802422,3.35154772
394.53125,0.73605758,3.75731492
398.4375,0.78643399,3.94460726
402.34375,0.77389556,3.89218569
406.25,0.72443628,3.60735965
410.15625,0.62763208,3.12388968
414.0625,0.49400344,2.49373245
417.96875,0.39665163,1.77683663
421.875,0.23791388,1.03807688
425.78125,0.09263058,0.34459931
429.6875,-0.01218809,-0.24950215
433.59375,-0.08960588,-0.72076166
437.5,-0.15059964,-1.07412136
441.40625,-0.22013927,-1.32344222
445.3125,-0.22281079,-1.47651482
449.21875,-0.25932750,-1.53571498
453.125,-0.25115314,-1.50960922
457.03125,-0.22037211,-1.42247963
460.9375,-0.19209263,-1.30781198
464.84375,-0.19072101,-1.18947899
468.75,-0.16801852,-1.07239938
472.65625,-0.12286735,-0.95095217
476.5625,-0.12534757,-0.82134104
480.46875,-0.08527086,-0.68751401
484.375,-0.06439812,-0.56089771
488.28125,-0.03656677,-0.45445120
492.1875,-0.02960383,-0.37458125
496.09375,-0.02382696,-0.31870911
500.0,-0.00338109,-0.27998450
503.90625,-0.01673124,-0.25290361
507.8125,0.01216064,-0.23461142
511.71875,-0.00162608,-0.22184929
515.625,-0.00161775,-0.20861034
519.53125,0.00686761,-0.18949910
523.4375,0.01316533,-0.16506606
527.34375,0.02202920,-0.14142559
531.25,0.01153825,-0.12515129
535.15625,0.02330993,-0.11983620
539.0625,0.02644760,-0.12506022
542.96875,0.01366506,-0.13637762
546.875,0.00329622,-0.14898358
550.78125,0.02622480,-0.16255268
554.6875,0.01859023,-0.17865823
558.59375,-0.01000946,-0.19462240
562.5,0.00359627,-0.20597236
566.40625,0.01725359,-0.21252613
570.3125,-0.00084910,-0.21537586
574.21875,0.00751365,-0.21094900
578.125,-0.00478833,-0.19454846
582.03125,0.02066921,-0.16821475
585.9375,0.01881492,-0.14089461
589.84375,0.01810424,-0.12159452
593.75,0.03343383,-0.11408377
597.65625,0.01190573,-0.11682446
601.5625,0.01273898,-0.12661126
605.46875,0.04051981,-0.14108160
609.375,0.00074134,-0.15602283
613.28125,0.02517200,-0.16299355
617.1875,0.00071063,-0.15492198
621.09375,0.01939597,-0.13457996
625.0,0.04201878,-0.11380122
628.90625,0.01995353,-0.10299694
632.8125,0.00750262,-0.10508250
636.71875,0.04544169,-0.11919270
640.625,0.01037121,-0.14198695
644.53125,0.01448805,-0.16336694
648.4375,0.02067957,-0.16866907
652.34375,0.00098038,-0.15028343
656.25,0.03053575,-0.11731769
660.15625,0.03664324,-0.09139115
664.0625,0.02638465,-0.08989874
667.96875,0.02130526,-0.11383802
671.875,0.01561017,-0.15128396
675.78125,0.02810273,-0.18725044
679.6875,-0.02027954,-0.21001051
683.59375,0.01608300,-0.21525829
687.5,0.02071193,-0.20669892
691.40625,-0.00613042,-0.19067207
695.3125,0.02286680,-0.17211880
699.21875,0.01627892,-0.15521523
703.125,0.01744969,-0.14316197
707.03125,0.01913602,-0.13751835
710.9375,0.02487513,-0.13947539
714.84375,0.02352253,-0.14930093
718.75,0.00563156,-0.16378206
722.65625,0.01672837,-0.17664151
726.5625,0.01599818,-0.18122014
730.46875,0.01869519,-0.17168425
734.375,0.01119110,-0.14507861
738.28125,0.02997183,-0.10605099
742.1875,0.03403686,-0.06832006
746.09375,0.03669068,-0.04873389
750.0,0.04134542,-0.05811380
753.90625,0.03644357,-0.09418628
757.8125,0.01305094,-0.14038198
761.71875,0.01124282,-0.17402165
765.625,0.01388819,-0.18011984
769.53125,0.02540493,-0.15954359
773.4375,0.01718881,-0.12641175
777.34375,0.03068231,-0.09957091
781.25,0.03863558,-0.09325267
785.15625,0.01370873,-0.11067911
789.0625,0.03066863,-0.14465186
792.96875,0.01423635,-0.18302704
796.875,0.00379247,-0.21340656
800.78125,0.00380204,-0.22647718
804.6875,0.01523440,-0.21884620
808.59375,-0.00369431,-0.19482541
812.5,0.02510400,-0.16639906
816.40625,0.03722076,-0.14711493
820.3125,0.00499794,-0.14137428
824.21875,0.01463410,-0.14269605
828.125,0.03637484,-0.14393212
832.03125,0.02035302,-0.14491822
835.9375,0.01540243,-0.15256430
839.84375,0.00464137,-0.18020287
843.75,0.01212381,-0.24296154
847.65625,-0.00634419,-0.34254092
851.5625,-0.03407976,-0.45213759
855.46875,-0.05784142,-0.52076679
859.375,-0.05935062,-0.49762174
863.28125,-0.00147017,-0.35402557
867.1875,0.02853818,-0.08414758
871.09375,0.11798874,0.30880207
875.0,0.20344347,0.82032990
878.90625,0.30112559,1.43599594
882.8125,0.45058367,2.11519599
886.71875,0.58941168,2.78726101
890.625,0.67409879,3.36723018
894.53125,0.75647664,3.77703023
898.4375,0.81896132,3.96100235
902.34375,0.76592171,3.89655852
906.25,0.71749443,3.59510088
910.15625,0.64885622,3.09263182
914.0625,0.51738930,2.44411659
917.96875,0.36608723,1.72258437
921.875,0.22586454,1.00634551
925.78125,0.12175959,0.35570070
929.6875,0.02046129,-0.19896919
933.59375,-0.07355937,-0.65012485
937.5,-0.14580522,-1.00073409
941.40625,-0.17895487,-1.25667882
945.3125,-0.22056350,-1.42289686
949.21875,-0.24587162,-1.50395656
953.125,-0.21035555,-1.50857484
957.03125,-0.23861964,-1.45119488
960.9375,-0.20740502,-1.35011649
964.84375,-0.18395181,-1.22656047
968.75,-0.14058569,-1.10022879
972.65625,-0.14078689,-0.97962087
976.5625,-0.10943004,-0.85939789
980.46875,-0.10368188,-0.73220557
984.375,-0.05694348,-0.60285878
988.28125,-0.03721950,-0.48826477
992.1875,-0.01934768,-0.40330893
996.09375,-0.02580651,-0.34887215
1000.0,-0.00206153,-0.31289530
1003.90625,-0.00805122,-0.27987182
1007.8125,0.00232617,-0.24086213
1011.71875,0.01109964,-0.19985363
1015.625,0.03032743,-0.17092498
1019.53125,0.01141729,-0.16530034
1023.4375,0.02003435,-0.17983669
1027.34375,0.00857818,-0.19854358
1031.25,0.01236777,-0.20501597
1035.15625,0.01108735,-0.19457527
1039.0625,0.01776966,-0.17634197
1042.96875,0.02896734,-0.16369231
1046.875,0.00654079,-0.16255075
1050.78125,0.02845295,-0.16915910
1054.6875,0.00840053,-0.17693740
1058.59375,0.02383023,-0.18207316
1062.5,0.01316877,-0.18249878
1066.40625,0.01614227,-0.17531142
1070.3125,0.01505113,-0.15914443
1074.21875,0.03290853,-0.13899367
1078.125,0.02272299,-0.12508143
1082.03125,0.03250596,-0.12494273
1085.9375,0.01521721,-0.13794743
1089.84375,0.01670203,-0.15807956
1093.75,0.03889195,-0.17846565
1097.65625,-0.00028039,-0.19107743
1101.5625,0.00892841,-0.18815987
1105.46875,0.01730841,-0.16960420
1109.375,0.04127822,-0.14495908
1113.28125,0.01208341,-0.12510692
1117.1875,0.02890140,-0.11563576
1121.09375,0.03833914,-0.11733671
1125.0,0.01648521,-0.12762097
1128.90625,0.01721089,-0.14220224
1132.8125,0.03932040,-0.15733093
1136.71875,0.01259514,-0.16839536
1140.625,0.00657025,-0.16959208
1144.53125,0.02912234,-0.16053377
1148.4375,0.01295614,-0.15033187
1152.34375,0.03469629,-0.14993900
1156.25,0.02556320,-0.16064027
1160.15625,-0.00198848,-0.17299868
1164.0625,0.02237943,-0.17832339
1167.96875,0.01913732,-0.17835270
1171.875,0.01100356,-0.18151534
1175.78125,0.03218541,-0.19194292
1179.6875,-0.00236529,-0.20405959
1183.59375,0.00381382,-0.20865856
1187.5,0.01285769,-0.20429768
1191.40625,0.02829739,-0.19948997
1195.3125,0.00023236,-0.20267588
1199.21875,0.01103517,-0.21387269
1203.125,0.01004905,-0.22613314
1207.03125,0.00044173,-0.23131229
1210.9375,0.01387380,-0.22510283
1214.84375,0.00464334,-0.21008933
1218.75,0.01296303,-0.19493268
1222.65625,0.02177344,-0.18916930
1226.5625,0.00730584,-0.19701935
1230.46875,0.00773228,-0.21538496
1234.375,0.00628004,-0.23655458
1238.28125,0.00789567,-0.25079659
1242.1875,-0.00080751,-0.24799730
1246.09375,0.00380741,-0.22241165
1250.0,0.01940389,-0.17954695
1253.90625,0.00733803,-0.13798793
1257.8125,0.05718910,-0.12042750
1261.71875,0.00801342,-0.13684632
1265.625,0.02327647,-0.17424424
1269.53125,-0.00039168,-0.20533139
1273.4375,0.01443254,-0.20948249
1277.34375,0.01103680,-0.18775174
1281.25,0.01662018,-0.16091672
1285.15625,0.03356146,-0.15232477
1289.0625,0.01547420,-0.16846934
1292.96875,0.00291690,-0.19427566
1296.875,0.01886600,-0.20672737
1300.78125,0.00576266,-0.19227283
1304.6875,0.01591516,-0.15499705
1308.59375,0.03656467,-0.11412182
1312.5,0.02877521,-0.09285686
1316.40625,0.03030490,-0.10411991
1320.3125,0.02354707,-0.14265497
1324.21875,0.01648633,-0.18844952
1328.125,-0.00271670,-0.21933024
1332.03125,0.00840340,-0.22574762
1335.9375,0.00450606,-0.21740478
1339.84375,0.01373985,-0.21586685
1343.75,0.00958798,-0.23833531
1347.65625,-0.00689171,-0.28497285
1351.5625,-0.03309621,-0.33936000
1355.46875,-0.00897508,-0.37760523
1359.375,-0.01274915,-0.37147868
1363.28125,-0.01468346,-0.28442854
1367.1875,0.03129472,-0.07563189
1371.09375,0.10540041,0.28388381
1375.0,0.19558392,0.79558414
1378.90625,0.31212923,1.42662156
1382.8125,0.44986171,2.11297512
1386.71875,0.57197207,2.77378988
1390.625,0.68401778,3.33197141
1394.53125,0.73979992,3.72748852
1398.4375,0.77524149,3.91731691
1402.34375,0.80414325,3.87405920
1406.25,0.70859003,3.59444046
1410.15625,0.63829207,3.10787153
1414.0625,0.51494455,2.47199607
1417.96875,0.37847516,1.75864565
1421.875,0.23092157,1.03736651
1425.78125,0.12421436,0.36115792
1429.6875,0.00583888,-0.23685588
1433.59375,-0.09193783,-0.73499131
1437.5,-0.17206949,-1.11663783
1441.40625,-0.20419031,-1.37382483
1445.3125,-0.23610760,-1.51241946
1449.21875,-0.25569406,-1.55152512
1453.125,-0.23496631,-1.51870072
1457.03125,-0.22170778,-1.44199979
1460.9375,-0.20074470,-1.34001148
1464.84375,-0.18665284,-1.21802866
1468.75,-0.16577655,-1.07627761
1472.65625,-0.12307858,-0.92247289
1476.5625,-0.10204342,-0.77431637
1480.46875,-0.05988932,-0.64784312
1484.375,-0.05957715,-0.54439139
1488.28125,-0.05917157,-0.45366219
1492.1875,-0.02097812,-0.37108162
1496.09375,0.00782764,-0.30484027
1500.0,-0.00716322,-0.26136717
1503.90625,-0.00525921,-0.23290537
1507.8125,-0.00477994,-0.20754966
1511.71875,0.02924532,-0.18514857
1515.625,0.00676771,-0.17521133
1519.53125,0.00787664,-0.18271846
1523.4375,0.01567398,-0.20149714
1527.34375,-0.00434129,-0.21873872
1531.25,0.00990590,-0.22255981
1535.15625,-0.00182070,-0.20791118
1539.0625,0.01181915,-0.17970817
1542.96875,0.01953781,-0.15132685
1546.875,0.02468506,-0.13710003
1550.78125,0.00847252,-0.14290747
1554.6875,0.02331100,-0.16238265
1558.59375,0.00865181,-0.18171236
1562.5,-0.00660091,-0.19061762
1566.40625,0.02010121,-0.19151440
1570.3125,0.01065271,-0.19515646
1574.21875,0.01437763,-0.20495610
1578.125,-0.01852565,-0.21067630
1582.03125,0.01549011,-0.20066305
1585.9375,0.01584329,-0.17470759
1589.84375,0.01574957,-0.14191277
1593.75,0.02522156,-0.11236571
1597.65625,0.00829535,-0.09576332
1601.5625,0.03840064,-0.10276905
1605.46875,0.02125352,-0.13773133
1609.375,0.01900424,-0.18661439
1613.28125,-0.01764218,-0.21951012
1617.1875,-0.01140267,-0.21455657
1621.09375,0.03022670,-0.17938083
1625.0,0.01682872,-0.14330962
1628.90625,0.02325050,-0.12926261
1632.8125,0.00741800,-0.13739043
1636.71875,0.01047895,-0.15294167
1640.625,0.01892173,-0.16322978
1644.53125,0.00228888,-0.16610277
1648.4375,0.02764242,-0.16614138
1652.34375,-0.00166591,-0.16613461
1656.25,0.01426359,-0.16401221
1660.15625,0.00829371,-0.15789720
1664.0625,0.01574970,-0.15081796
1667.96875,0.02641962,-0.14743158
1671.875,-0.00209453,-0.14801151
1675.78125,0.01676401,-0.14950919
1679.6875,0.01269943,-0.15104379
1683.59375,0.02129778,-0.15323055
1687.5,0.01080742,-0.15269259
1691.40625,0.00509592,-0.14346410
1695.3125,0.01694398,-0.12624373
1699.21875,0.02684008,-0.11215750
1703.125,0.02054583,-0.11399554
1707.03125,0.01252034,-0.13496108
1710.9375,0.01565878,-0.16648310
1714.84375,-0.00806343,-0.19486728
1718.75,0.00385023,-0.21006744
1722.65625,0.00720942,-0.20977104
1726.5625,0.00368388,-0.19647658
1730.46875,0.00160980,-0.17391624
1734.375,0.00933756,-0.14877151
1738.28125,0.01460875,-0.13211419
1742.1875,0.03296659,-0.13242644
1746.09375,0.00115178,-0.14601348
1750.0,-0.00146327,-0.15926397
1753.90625,0.02129384,-0.16180009
1757.8125,0.01108123,-0.15398642
1761.71875,-0.00156502,-0.14400651
1765.625,0.02736484,-0.14258131
1769.53125,0.00636228,-0.15633097
1773.4375,0.00482586,-0.18033287
1777.34375,0.00124226,-0.19896503
1781.25,-0.00257042,-0.19742040
1785.15625,0.00956493,-0.17398721
1789.0625,-0.00326917,-0.14314704
1792.96875,0.03754964,-0.12561086
1796.875,0.01193940,-0.13042179
1800.78125,0.00480834,-0.14636147
1804.6875,-0.00165480,-0.15543157
1808.59375,0.01053740,-0.15409273
1812.5,0.01923561,-0.15546033
1816.40625,0.00997080,-0.17012420
1820.3125,-0.00693299,-0.19072121
1824.21875,0.00348641,-0.19913357
1828.125,-0.01517857,-0.18732464
1832.03125,0.02065042,-0.16853832
1835.9375,0.00833440,-0.16697702
1839.84375,-0.00280747,-0.19718343
1843.75,-0.00982351,-0.25422737
1847.65625,-0.03049112,-0.32085517
1851.5625,-0.03635054,-0.37886187
1855.46875,-0.03080136,-0.41107777
1859.375,-0.04152340,-0.39396465
1863.28125,-0.01626723,-0.29300499
1867.1875,0.02025772,-0.07022139
1871.09375,0.08913789,0.29982325
1875.0,0.18675144,0.81562650
1878.90625,0.31434181,1.44343376
1882.8125,0.42893749,2.12290549
1886.71875,0.56846905,2.78024173
1890.625,0.66051066,3.34266210
1894.53125,0.74055141,3.74803638
1898.4375,0.77428907,3.94769287
1902.34375,0.78180254,3.90899110
1906.25,0.71152180,3.62452817
1910.15625,0.63541174,3.12281442
1914.0625,0.48708260,2.46760917
1917.96875,0.36861491,1.74063981
1921.875,0.21352834,1.01697361
1925.78125,0.11360824,0.34904265
1929.6875,-0.01861468,-0.23350099
1933.59375,-0.09432555,-0.71534228
1937.5,-0.17544600,-1.08892512
1941.40625,-0.22267088,-1.35223854
1945.3125,-0.23812400,-1.50794518
1949.21875,-0.27332434,-1.56396484
1953.125,-0.26603675,-1.53782630
1957.03125,-0.22280622,-1.45861745
1960.9375,-0.23289996,-1.35710037
1964.84375,-0.19068092,-1.25027788
1968.75,-0.18560179,-1.13667357
1972.65625,-0.16895589,-1.00718200
1976.5625,-0.12885329,-0.86127454
1980.46875,-0.08984950,-0.71293104
1984.375,-0.07935372,-0.58102226
1988.28125,-0.06428600,-0.47652185
1992.1875,-0.03521169,-0.39895770
1996.09375,-0.04224665,-0.34071708
2000.0,-0.01480483,-0.29298729
2003.90625,-0.01241064,-0.24989088
2007.8125,-0.02309879,-0.21038389
2011.71875,0.00414145,-0.17890528
2015.625,0.00915320,-0.16237548
2019.53125,-0.00549191,-0.16288219
2023.4375,-0.00002201,-0.17370597
2027.34375,-0.00415172,-0.18382820
2031.25,-0.01388667,-0.18628190
2035.15625,0.00923154,-0.18290871
2039.0625,-0.01231822,-0.18087320
2042.96875,0.00605755,-0.18327157
2046.875,-0.00671879,-0.18369327
2050.78125,-0.01277138,-0.17240070
2054.6875,0.00679549,-0.14901286
2058.59375,0.00211341,-0.12657243
2062.5,0.02132814,-0.12002208
2066.40625,-0.00178301,-0.13112785
2070.3125,0.00073355,-0.14637099
2074.21875,0.00020848,-0.14927280
2078.125,-0.00429361,-0.13491173
2082.03125,0.01438127,-0.11464492
2085.9375,0.01651442,-0.10668532
2089.84375,0.00652443,-0.11967897
2093.75,-0.01384067,-0.14603879
2097.65625,0.00356247,-0.17177805
2101.5625,-0.00125302,-0.18816888
2105.46875,-0.00745654,-0.19193172
2109.375,-0.02079073,-0.18126921
2113.28125,0.00831354,-0.15746701
2117.1875,0.01198573,-0.12683392
2121.09375,0.00120882,-0.09804437
2125.0,0.00281984,-0.08069319
2128.90625,0.01833083,-0.08508502
2132.8125,0.02033738,-0.11451782
2136.71875,-0.00033450,-0.15515628
2140.625,-0.03734710,-0.18257308
2144.53125,0.00530901,-0.18449274
2148.4375,-0.00153113,-0.17186277
2152.34375,0.00473620,-0.16363698
2156.25,-0.00980586,-0.16616413
2160.15625,-0.01574202,-0.17126772
2164.0625,0.00225503,-0.16986902
2167.96875,-0.00757617,-0.16245405
2171.875,-0.00288475,-0.15718472
2175.78125,0.00074665,-0.16054620
2179.6875,-0.00315457,-0.17007622
2183.59375,-0.02177108,-0.17684063
2187.5,0.00221598,-0.17576897
2191.40625,-0.01067025,-0.17138648
2195.3125,-0.00748905,-0.17271407
2199.21875,-0.00002073,-0.18477404
2203.125,-0.02267217,-0.20422019
2207.03125,-0.00859213,-0.22033159
2210.9375,-0.02746764,-0.22128448
2214.84375,-0.01240446,-0.20371276
2218.75,-0.00182179,-0.17778406
2222.65625,-0.00777608,-0.16040118
2226.5625,-0.00963576,-0.16131817
2230.46875,0.00043694,-0.17501819
2234.375,-0.01148269,-0.18507302
2238.28125,-0.02596672,-0.17837766
2242.1875,0.00572345,-0.15813634
2246.09375,-0.00474830,-0.14176416
2250.0,0.00200978,-0.14500928
2253.90625,-0.01250096,-0.16942643
2257.8125,-0.01297714,-0.20286544
2261.71875,-0.01683820,-0.22778781
2265.625,-0.03119436,-0.23139791
2269.53125,-0.01390789,-0.21447431
2273.4375,-0.01568288,-0.19170649
2277.34375,0.01028616,-0.17904241
2281.25,-0.03161519,-0.17960215
2285.15625,-0.00862585,-0.18448767
2289.0625,-0.01133367,-0.18490498
2292.96875,-0.01030417,-0.17889163
2296.875,-0.01135792,-0.16944543
2300.78125,-0.00709602,-0.16173208
2304.6875,0.00035528,-0.16064559
2308.59375,-0.02984019,-0.16828215
2312.5,-0.00023528,-0.18448211
2316.40625,-0.01380273,-0.20801802
2320.3125,-0.02257073,-0.23432551
2324.21875,-0.03355520,-0.25502631
2328.125,-0.03413411,-0.26404709
2332.03125,-0.01504249,-0.26356179
2335.9375,-0.03090767,-0.26266217
2339.84375,-0.03638836,-0.27256465
2343.75,-0.03685787,-0.30333415
2347.65625,-0.04103873,-0.35869500
2351.5625,-0.05781882,-0.42741132
2355.46875,-0.07346857,-0.47919297
2359.375,-0.06602253,-0.47053728
2363.28125,-0.04292095,-0.35632047
2367.1875,-0.01241934,-0.10301473
2371.09375,0.07977988,0.29856718
2375.0,0.18077424,0.82898003
2378.90625,0.30002502,1.44958544
2382.8125,0.41131881,2.11459684
2386.71875,0.53900218,2.77126598
2390.625,0.64183468,3.35229683
2394.53125,0.74686921,3.77816534
2398.4375,0.76008397,3.97745490
2402.34375,0.78055215,3.91400075
2406.25,0.67369813,3.60128927
2410.15625,0.60639012,3.09351683
2414.0625,0.48835978,2.46163940
2417.96875,0.34711730,1.77187037
2421.875,0.21749030,1.07534826
2425.78125,0.10717175,0.40916085
2429.6875,-0.02760294,-0.19504753
2433.59375,-0.10670401,-0.70565885
2437.5,-0.18925644,-1.09651697
2441.40625,-0.24512775,-1.35761058
2445.3125,-0.27027890,-1.50039136
2449.21875,-0.25924999,-1.55086792
2453.125,-0.26440290,-1.53355467
2457.03125,-0.27454883,-1.46247232
2460.9375,-0.23567337,-1.34938610
2464.84375,-0.20956340,-1.21496487
2468.75,-0.18570134,-1.08425546
2472.65625,-0.15195023,-0.97066087
2476.5625,-0.15741920,-0.86746895
2480.46875,-0.12756512,-0.75766915
2484.375,-0.10783285,-0.63371193
2488.28125,-0.07490157,-0.50736916
2492.1875,-0.04566421,-0.39960569
2496.09375,-0.05414416,-0.32255968
2500.0,-0.03503641,-0.27295998
2503.90625,-0.02135894,-0.23927800
2507.8125,-0.03178896,-0.21027842
2511.71875,-0.01273748,-0.17959294
2515.625,-0.02107955,-0.14910501
2519.53125,0.00329562,-0.12836565
2523.4375,0.00010225,-0.12526140
2527.34375,-0.02124419,-0.13581188
2531.25,-0.02183856,-0.14747599
2535.15625,0.00689964,-0.15262477
2539.0625,-0.02542270,-0.15365273
2542.96875,-0.00111258,-0.15496026
2546.875,-0.01988363,-0.15537563
2550.78125,-0.02883152,-0.15189013
2554.6875,0.00563797,-0.14865801
2558.59375,-0.00987032,-0.15539058
2562.5,-0.02752427,-0.17457885
2566.40625,-0.01805105,-0.19569065
2570.3125,-0.02404818,-0.20422469
2574.21875,-0.02692361,-0.19471595
2578.125,-0.01668946,-0.17575036
2582.03125,-0.00241516,-0.16291250
2585.9375,-0.03250229,-0.16613138
2589.84375,-0.00971842,-0.18403739
2593.75,-0.03315345,-0.20787047
2597.65625,-0.01669480,-0.22656822
2601.5625,-0.03324630,-0.22990085
2605.46875,-0.03206850,-0.21359552
2609.375,-0.02443642,-0.18484455
2613.28125,-0.00445888,-0.15900253
2617.1875,-0.00649324,-0.14589101
2621.09375,-0.01824210,-0.14049651
2625.0,-0.02049753,-0.13136525
2628.90625,-0.01538104,-0.11731691
2632.8125,0.01691904,-0.11031847
2636.71875,-0.01275183,-0.12030305
2640.625,-0.01854839,-0.14271997
2644.53125,-0.02284342,-0.16442049
2648.4375,-0.02085352,-0.17709452
2652.34375,-0.00976290,-0.18034823
2656.25,-0.01032510,-0.17458555
2660.15625,-0.04594090,-0.15828426
2664.0625,0.00779501,-0.13489120
2667.96875,-0.01213846,-0.11668308
2671.875,-0.01864689,-0.11712807
2675.78125,0.01456302,-0.13905634
2679.6875,-0.03616627,-0.16881956
2683.59375,-0.03268374,-0.18399656
2687.5,-0.00432056,-0.17139599
2691.40625,-0.01777797,-0.13688268
2695.3125,-0.00723029,-0.09901262
2699.21875,-0.00317888,-0.07813855
2703.125,0.00398031,-0.08786388
2707.03125,-0.01000718,-0.12724859
2710.9375,-0.02568396,-0.17888819
2714.84375,-0.03821120,-0.21918090
2718.75,-0.01652324,-0.23349863
2722.65625,-0.03931519,-0.22234428
2726.5625,-0.01754063,-0.19637579
2730.46875,-0.02789928,-0.16918325
2734.375,-0.01377979,-0.15305498
2738.28125,-0.01006978,-0.15520462
2742.1875,-0.01896710,-0.17265154
2746.09375,-0.03506770,-0.19139029
2750.0,-0.01679719,-0.19515207
2753.90625,-0.02731898,-0.17811777
2757.8125,-0.01493916,-0.15125935
2761.71875,-0.02421607,-0.13693193
2765.625,0.00927732,-0.15139760
2769.53125,-0.02540244,-0.18557340
2773.4375,-0.04202599,-0.20653617
2777.34375,-0.02989108,-0.18744130
2781.25,-0.01795736,-0.13714953
2785.15625,0.01442508,-0.09494882
2789.0625,-0.00216390,-0.09438504
2792.96875,-0.02620949,-0.13429160
2796.875,-0.01903702,-0.18379918
2800.78125,-0.03364372,-0.21074630
2804.6875,-0.03680138,-0.20579635
2808.59375,-0.00792163,-0.18462290
2812.5,-0.01432316,-0.16862035
2816.40625,-0.02847374,-0.16452001
2820.3125,-0.02823321,-0.16564813
2824.21875,-0.01484267,-0.16845997
2828.125,-0.01266628,-0.17810231
2832.03125,-0.03226481,-0.19884862
2835.9375,-0.04643064,-0.22943178
2839.84375,-0.02026890,-0.26860428
2843.75,-0.04792160,-0.31569085
2847.65625,-0.07137716,-0.36437750
2851.5625,-0.06242972,-0.40307468
2855.46875,-0.06522518,-0.41959465
2859.375,-0.05473948,-0.39709219
2863.28125,-0.05384264,-0.30520403
2867.1875,-0.00419584,-0.10222633
2871.09375,0.04597515,0.24767038
2875.0,0.16357175,0.75363314
2878.90625,0.25835040,1.38696992
2882.8125,0.41495529,2.08500838
2886.71875,0.53763837,2.76673985
2890.625,0.62698585,3.34973931
2894.53125,0.71538621,3.76006413
2898.4375,0.77845359,3.94187069
2902.34375,0.73441267,3.87317014
2906.25,0.67095852,3.57242203
2910.15625,0.59301400,3.08389020
2914.0625,0.47721511,2.45937204
2917.96875,0.34985721,1.75497758
2921.875,0.20171347,1.03387451
2925.78125,0.07070684,0.35809368
2929.6875,-0.03683369,-0.22794454
2933.59375,-0.11408667,-0.70542431
2937.5,-0.19285394,-1.07322228
2941.40625,-0.23014557,-1.33423197
2945.3125,-0.28586906,-1.48997355
2949.21875,-0.28024006,-1.54635930
2953.125,-0.27583387,-1.52057576
2957.03125,-0.25137594,-1.43819249
2960.9375,-0.24028733,-1.32263017
2964.84375,-0.22055039,-1.18891072
2968.75,-0.18477125,-1.04688752
2972.65625,-0.16962707,-0.90645951
2976.5625,-0.10818105,-0.77571791
2980.46875,-0.13337757,-0.65545011
2984.375,-0.09955491,-0.54244047
2988.28125,-0.06035847,-0.44004562
2992.1875,-0.05774418,-0.35894594
2996.09375,-0.05091777,-0.30539355
3000.0,-0.03269504,-0.27286988
3003.90625,-0.04305137,-0.24573945
3007.8125,-0.03046839,-0.21043098
3011.71875,-0.02576106,-0.16560741
3015.625,-0.00164391,-0.12300129
3019.53125,-0.01923356,-0.09860145
3023.4375,0.00316694,-0.10255255
3027.34375,-0.02142548,-0.13309912
3031.25,-0.01737666,-0.17522453
3035.15625,-0.04084919,-0.20642874
3039.0625,-0.01249790,-0.20939220
3042.96875,-0.04387945,-0.18398148
3046.875,-0.01177649,-0.14962223
3050.78125,-0.00800666,-0.13335991
3054.6875,-0.01497209,-0.14960836
3058.59375,-0.03251366,-0.18909052
3062.5,-0.02327284,-0.22706629
3066.40625,-0.05189890,-0.24153867
3070.3125,-0.02854780,-0.22677204
3074.21875,-0.01701405,-0.19384085
3078.125,-0.01981254,-0.15928465
3082.03125,-0.02433062,-0.13400520
3085.9375,-0.00407611,-0.12205187
3089.84375,-0.01564850,-0.12446306
3093.75,-0.01989771,-0.14100578
3097.65625,-0.01758386,-0.16992435
3101.5625,-0.03274982,-0.20651029
3105.46875,-0.02204897,-0.24070284
3109.375,-0.04357236,-0.25803074
3113.28125,-0.05326878,-0.24873351
3117.1875,-0.02418960,-0.21902935
3121.09375,-0.00876392,-0.18895151
3125.0,-0.03325583,-0.17521587
3128.90625,-0.01523561,-0.17851949
3132.8125,-0.04104345,-0.18802953
3136.71875,-0.02022020,-0.19416665
3140.625,-0.01965538,-0.19459271
3144.53125,-0.01992096,-0.18947478
3148.4375,-0.03724480,-0.17614850
3152.34375,-0.01311437,-0.15249415
3156.25,-0.01133374,-0.12357793
3160.15625,-0.01314167,-0.10133313
3164.0625,0.00785755,-0.09666304
3167.96875,-0.02384036,-0.11144372
3171.875,-0.01718383,-0.13788900
3175.78125,-0.00474655,-0.16422300
3179.6875,-0.03559400,-0.18007495
3183.59375,-0.03037864,-0.18132871
3187.5,-0.00601332,-0.17363137
3191.40625,-0.02341281,-0.16757317
3195.3125,-0.02887092,-0.16908351
3199.21875,-0.01319656,-0.17712937
3203.125,-0.03547908,-0.18886030
3207.03125,-0.01729376,-0.20324743
3210.9375,-0.03152007,-0.21880424
3214.84375,-0.02681895,-0.22921553
3218.75,-0.05099822,-0.22591643
3222.65625,-0.01630600,-0.20792687
3226.5625,-0.01584513,-0.18444696
3230.46875,-0.02093294,-0.16411056
3234.375,-0.02676892,-0.14712735
3238.28125,-0.01587520,-0.13207951
3242.1875,-0.00082141,-0.12403268
3246.09375,-0.00797218,-0.12904504
3250.0,-0.02707667,-0.14389502
3253.90625,-0.01549673,-0.15757254
3257.8125,-0.02140633,-0.16214100
3261.71875,-0.01178804,-0.15880859
3265.625,-0.02793011,-0.15480772
3269.53125,-0.00020650,-0.15613981
3273.4375,-0.02754686,-0.16196595
3277.34375,-0.03011070,-0.16645855
3281.25,-0.01378406,-0.16640809
3285.15625,0.00190671,-0.16242258
3289.0625,-0.03812456,-0.15298599
3292.96875,-0.01704105,-0.13652393
3296.875,-0.01009760,-0.12027941
3300.78125,0.01492264,-0.11669666
3304.6875,-0.03568088,-0.12870306
3308.59375,-0.00389219,-0.14613524
3312.5,-0.02627609,-0.15766047
3316.40625,-0.02142963,-0.16153727
3320.3125,-0.00601446,-0.16457176
3324.21875,-0.01718069,-0.17274413
3328.125,-0.03504083,-0.18505491
3332.03125,-0.02289912,-0.19862442
3335.9375,-0.02804014,-0.21696880
3339.84375,-0.02647240,-0.24829920
3343.75,-0.04786060,-0.29597571
3347.65625,-0.05506299,-0.35297984
3351.5625,-0.06155500,-0.40364692
3355.46875,-0.06475849,-0.42659929
3359.375,-0.06560288,-0.39609978
3363.28125,-0.04053460,-0.28476378
3367.1875,0.00311969,-0.06782629
3371.09375,0.06825160,0.27398548
3375.0,0.15309002,0.75107735
3378.90625,0.26143059,1.35548127
3382.8125,0.40013051,2.04716110
3386.71875,0.53061491,2.74863434
3390.625,0.64549851,3.35864282
3394.53125,0.73726982,3.78205538
3398.4375,0.76077479,3.95985985
3402.34375,0.73900759,3.88022971
3406.25,0.67833215,3.56640816
3410.15625,0.59841168,3.05929041
3414.0625,0.47551885,2.41278458
3417.96875,0.33059087,1.69536221
3421.875,0.18717729,0.97937405
3425.78125,0.07568441,0.32015863
3429.6875,-0.02575483,-0.25333896
3433.59375,-0.11724008,-0.72836393
3437.5,-0.20445445,-1.09602606
3441.40625,-0.23833741,-1.35187423
3445.3125,-0.26276341,-1.50156188
3449.21875,-0.28358766,-1.55938423
3453.125,-0.27179378,-1.54246855
3457.03125,-0.26747155,-1.46772039
3460.9375,-0.23056394,-1.35123992
3464.84375,-0.22672603,-1.20882499
3468.75,-0.17397274,-1.05720615
3472.65625,-0.15499142,-0.91206896
3476.5625,-0.13682841,-0.78223348
3480.46875,-0.11431933,-0.66764736
3484.375,-0.07902202,-0.56423348
3488.28125,-0.08165612,-0.46934059
3492.1875,-0.05670082,-0.38464132
3496.09375,-0.05210631,-0.31723174
3500.0,-0.02078047,-0.27579889
3503.90625,-0.03526140,-0.26097918
3507.8125,-0.02906575,-0.25955811
3511.71875,-0.05368752,-0.25287887
3515.625,-0.01617465,-0.23338108
3519.53125,-0.02148946,-0.20984823
3523.4375,-0.00902017,-0.19424473
3527.34375,-0.03256387,-0.18737368
3531.25,-0.02481174,-0.18113084
3535.15625,0.00175334,-0.17045714
3539.0625,-0.02290427,-0.15723999
3542.96875,-0.01111605,-0.14520660
3546.875,-0.00233966,-0.13615552
3550.78125,-0.01223827,-0.13047998
3554.6875,-0.01233722,-0.12940657
3558.59375,0.00157930,-0.13560170
3562.5,-0.01924239,-0.14949922
3566.40625,-0.00583883,-0.16545291
3570.3125,-0.01586010,-0.17405620
3574.21875,-0.02606682,-0.16985203
3578.125,-0.01186402,-0.15762562
3582.03125,0.00367196,-0.14953561
3585.9375,-0.01422664,-0.15368371
3589.84375,-0.02044782,-0.16685541
3593.75,-0.01444678,-0.17918482
3597.65625,-0.01768415,-0.18257101
3601.5625,-0.00563361,-0.17404264
3605.46875,-0.02370954,-0.15578943
3609.375,-0.00074242,-0.13495220
3613.28125,-0.00647978,-0.12088670
3617.1875,0.00337668,-0.11949588
3621.09375,-0.01673313,-0.13016737
3625.0,0.00018586,-0.14794469
3628.90625,-0.02299718,-0.16653775
3632.8125,-0.00366249,-0.17886023
3636.71875,-0.01351724,-0.17722768
3640.625,-0.02415038,-0.15716045
3644.53125,-0.00110202,-0.12404374
3648.4375,0.00698500,-0.09380496
3652.34375,0.01110903,-0.08219197
3656.25,-0.00481893,-0.09297981
3660.15625,-0.01303131,-0.11827381
3664.0625,0.00770748,-0.14752710
3667.96875,-0.02134148,-0.17283942
3671.875,-0.00813946,-0.18850917
3675.78125,-0.02751690,-0.19115408
3679.6875,-0.00790761,-0.18140535
3683.59375,-0.00642886,-0.16366632
3687.5,-0.01429445,-0.14405690
3691.40625,0.00327879,-0.12912510
3695.3125,-0.01073221,-0.12515445
3699.21875,-0.00337474,-0.13647093
3703.125,-0.00250161,-0.16207632
3707.03125,-0.01034713,-0.19229171
3710.9375,-0.03956784,-0.21232788
3714.84375,-0.01364170,-0.21468486
3718.75,-0.00662219,-0.20584379
3722.65625,-0.02068948,-0.19625396
3726.5625,-0.00775946,-0.18721867
3730.46875,-0.02622750,-0.17288299
3734.375,-0.00065726,-0.15319234
3738.28125,-0.00059548,-0.13882011
3742.1875,-0.00311113,-0.14086102
3746.09375,-0.01368840,-0.15885332
3750.0,-0.00426670,-0.18126354
3753.90625,-0.02282348,-0.19568096
3757.8125,-0.01698720,-0.19733354
3761.71875,-0.00237792,-0.18907431
3765.625,-0.01551816,-0.17533307
3769.53125,-0.01028351,-0.15958606
3773.4375,-0.00743848,-0.14803475
3777.34375,0.00570236,-0.14951289
3781.25,-0.01509342,-0.16742872
3785.15625,-0.01363483,-0.19457385
3789.0625,-0.01522813,-0.21817906
3792.96875,-0.02658655,-0.22850083
3796.875,-0.00433011,-0.22288585
3800.78125,-0.03139389,-0.20602639
3804.6875,-0.01620083,-0.18938307
3808.59375,0.00926074,-0.18519709
3812.5,-0.00614756,-0.19299421
3816.40625,-0.03343178,-0.19569090
3820.3125,-0.01831716,-0.17891251
3824.21875,0.01349401,-0.15161431
3828.125,-0.01066144,-0.13935575
3832.03125,0.01341578,-0.15882221
3835.9375,-0.01859828,-0.20357548
3839.84375,-0.04646814,-0.25444657
3843.75,-0.02173347,-0.30140731
3847.65625,-0.03786965,-0.35094160
3851.5625,-0.04236004,-0.40923798
3855.46875,-0.06588810,-0.46043077
3859.375,-0.06457578,-0.46221286
3863.28125,-0.04090847,-0.36099347
3867.1875,-0.00541368,-0.11504085
3871.09375,0.08664234,0.28756502
3875.0,0.18660040,0.82566065
3878.90625,0.28972581,1.45510626
3882.8125,0.43447608,2.12094307
3886.71875,0.54287660,2.76429820
3890.625,0.65740860,3.32504773
3894.53125,0.71883082,3.74280882
3898.4375,0.78959703,3.96090150
3902.34375,0.75698626,3.93785477
3906.25,0.72239125,3.66229773
3910.15625,0.62812287,3.16194916
3914.0625,0.49830228,2.50138426
3917.96875,0.35977960,1.76659179
3921.875,0.20827600,1.03945041
3925.78125,0.10407545,0.37535420
3929.6875,-0.00902546,-0.20126449
3933.59375,-0.09234352,-0.68292785
3937.5,-0.16853118,-1.06165004
3941.40625,-0.23345566,-1.32485318
3945.3125,-0.25963488,-1.46819139
3949.21875,-0.24619259,-1.50938904
3953.125,-0.23644805,-1.48294401
3957.03125,-0.24819650,-1.41902590
3960.9375,-0.22782454,-1.33088565
3964.84375,-0.20027891,-1.22141814
3968.75,-0.17620738,-1.09508479
3972.65625,-0.14888364,-0.96136248
3976.5625,-0.12996751,-0.83030283
3980.46875,-0.10066640,-0.70740932
3984.375,-0.08841899,-0.59347910
3988.28125,-0.06438392,-0.48981404
3992.1875,-0.03948437,-0.40228179
3996.09375,-0.03434911,-0.33815309
4000.0,-0.03266887,-0.29941323
4003.90625,-0.01404123,-0.27978787
4007.8125,-0.02517180,-0.26664144
4011.71875,-0.01573446,-0.24706501
4015.625,-0.01756508,-0.21717700
4019.53125,0.00041456,-0.18651764
4023.4375,0.00609271,-0.16909917
4027.34375,-0.00511434,-0.16860893
4031.25,-0.01082130,-0.17558512
4035.15625,0.00598641,-0.17867319
4039.0625,0.00364592,-0.17350455
4042.96875,-0.01801109,-0.16190310
4046.875,0.01266029,-0.14948076
4050.78125,0.01225430,-0.14350419
4054.6875,-0.00183162,-0.14755008
4058.59375,0.00052224,-0.15817530
4062.5,0.00022627,-0.16838971
4066.40625,-0.00419561,-0.17345557
4070.3125,0.00683422,-0.17395732
4074.21875,-0.00698199,-0.17510058
4078.125,-0.00186298,-0.18280818
4082.03125,0.00359568,-0.19836734
4085.9375,-0.01829706,-0.21560693
4089.84375,-0.00414304,-0.22466128
4093.75,-0.01293212,-0.21994908
4097.65625,-0.00339865,-0.20473373
4101.5625,-0.00397523,-0.18876843
4105.46875,-0.00017490,-0.18140340
4109.375,0.00386679,-0.18463869
4113.28125,-0.01006166,-0.19155093
4117.1875,0.00574321,-0.19261764
4121.09375,-0.01824871,-0.18484119
4125.0,0.01355332,-0.17441694
4128.90625,0.00147535,-0.16916661
4132.8125,0.01197437,-0.16896361
4136.71875,-0.02033606,-0.16696097
4140.625,0.01920645,-0.16028099
4144.53125,-0.00072793,-0.15469818
4148.4375,0.00689897,-0.15798429
4152.34375,0.00432520,-0.17206815
4156.25,0.00231335,-0.19018571
4160.15625,-0.00233150,-0.19875287
4164.0625,-0.02063295,-0.18657784
4167.96875,0.01848888,-0.15688090
4171.875,0.02611918,-0.12624598
4175.78125,-0.00337803,-0.10912827
4179.6875,0.02022135,-0.10801856
4183.59375,0.01559779,-0.11791774
4187.5,0.00873168,-0.13324754
4191.40625,0.00305904,-0.15024319
4195.3125,0.01199764,-0.16727465
4199.21875,-0.00273939,-0.18357384
4203.125,0.00116458,-0.19675751
4207.03125,-0.00109052,-0.20185068
4210.9375,-0.00348659,-0.19408499
4214.84375,-0.00101015,-0.17535181
4218.75,0.01295764,-0.15758020
4222.65625,0.01393562,-0.15455300
4226.5625,-0.00368774,-0.16811159
4230.46875,0.00528476,-0.18572044
4234.375,0.00395117,-0.19308344
4238.28125,-0.01448166,-0.18779121
4242.1875,0.02001058,-0.18059886
4246.09375,-0.00648294,-0.18339166
4250.0,0.02047207,-0.19555253
4253.90625,-0.02099950,-0.20351893
4257.8125,-0.00222928,-0.19479606
4261.71875,0.01644863,-0.17025807
4265.625,0.01270440,-0.14110979
4269.53125,0.01364591,-0.11813468
4273.4375,0.00721187,-0.10787375
4277.34375,0.03258065,-0.11378776
4281.25,0.00881471,-0.13333853
4285.15625,0.01222898,-0.15516351
4289.0625,-0.00040995,-0.16569410
4292.96875,-0.00115044,-0.16158934
4296.875,0.02509953,-0.15334085
4300.78125,0.02529871,-0.15264651
4304.6875,-0.01287818,-0.15792748
4308.59375,0.00232358,-0.15865432
4312.5,0.02420013,-0.15229002
4316.40625,0.01029530,-0.14856610
4320.3125,0.02095866,-0.15644552
4324.21875,-0.01274900,-0.17312911
4328.125,0.01053213,-0.18813071
4332.03125,0.00693210,-0.19526699
4335.9375,0.00450323,-0.19903101
4339.84375,-0.00930688,-0.21211329
4343.75,-0.00972828,-0.24814488
4347.65625,0.00204875,-0.31095725
4351.5625,-0.04305216,-0.38412699
4355.46875,-0.03838069,-0.43104616
4359.375,-0.03969586,-0.40840635
4363.28125,-0.02132866,-0.28260383
4367.1875,0.04490495,-0.03725753
4371.09375,0.11117952,0.33151513
4375.0,0.18440047,0.82268280
4378.90625,0.31442696,1.42588794
4382.8125,0.42890486,2.10550880
4386.71875,0.57079160,2.79090071
4390.625,0.67228931,3.38625813
4394.53125,0.77242327,3.79798746
4398.4375,0.79562551,3.96593761
4402.34375,0.76625109,3.87970853
4406.25,0.70105636,3.56851268
4410.15625,0.61499554,3.07574272
4414.0625,0.53297806,2.44524455
4417.96875,0.36044785,1.72904992
4421.875,0.21866935,0.99486661
4425.78125,0.10060120,0.31337011
4429.6875,-0.00736896,-0.26410320
4433.59375,-0.08321489,-0.71652484
4437.5,-0.16707489,-1.04819918
4441.40625,-0.18373163,-1.27526844
4445.3125,-0.23113222,-1.41299367
4449.21875,-0.23904705,-1.47257805
4453.125,-0.22422217,-1.46700072
4457.03125,-0.22828265,-1.41405272
4460.9375,-0.20843609,-1.33106244
4464.84375,-0.18175486,-1.22882068
4468.75,-0.17297433,-1.11162269
4472.65625,-0.14442489,-0.98244792
4476.5625,-0.10407432,-0.84700769
4480.46875,-0.09791604,-0.71271044
4484.375,-0.07397602,-0.58688909
4488.28125,-0.03718416,-0.47696924
4492.1875,-0.02579710,-0.38771027
4496.09375,-0.01632680,-0.31776056
4500.0,-0.02439465,-0.26422122
4503.90625,0.02088095,-0.22924426
4507.8125,0.00071309,-0.21488760
4511.71875,0.00274822,-0.21282388
4515.625,0.00726070,-0.20719618
4519.53125,0.00121184,-0.18903719
4523.4375,0.00941485,-0.16418177
4527.34375,0.03782784,-0.14607386
4531.25,-0.00410409,-0.14234905
4535.15625,0.04164560,-0.14848757
4539.0625,0.00324025,-0.15180524
4542.96875,0.00342017,-0.14215799
4546.875,0.03159057,-0.12298967
4550.78125,0.03835719,-0.11034095
4554.6875,0.01039949,-0.11751680
4558.59375,0.02533196,-0.14286935
4562.5,0.00588984,-0.17271145
4566.40625,0.01099963,-0.19262038
4570.3125,0.00622857,-0.19650163
4574.21875,0.01695490,-0.18807150
4578.125,0.00751542,-0.17566277
4582.03125,0.01698802,-0.16652443
4585.9375,0.01120843,-0.16472130
4589.84375,0.01539659,-0.17096771
4593.75,0.01624290,-0.18218543
4597.65625,0.00724772,-0.19180655
4601.5625,0.01076407,-0.19284803
4605.46875,0.00150284,-0.18311509
4609.375,0.02155266,-0.16819596
4613.28125,0.02443181,-0.15794095
4617.1875,0.01108284,-0.15877561
4621.09375,0.01206875,-0.16992640
4625.0,0.00889935,-0.18652274
4628.90625,0.01006873,-0.20388007
4632.8125,0.01738073,-0.21767153
4636.71875,-0.00473569,-0.22230522
4640.625,-0.00186741,-0.21356802
4644.53125,0.01654549,-0.19378251
4648.4375,0.02644693,-0.17030872
4652.34375,0.00742318,-0.14811186
4656.25,0.02548132,-0.12769286
4660.15625,0.02731438,-0.11044538
4664.0625,0.01728680,-0.10267314
4667.96875,0.04287684,-0.11258446
4671.875,0.01467594,-0.14159431
4675.78125,0.01777892,-0.17805314
4679.6875,0.00255316,-0.20286779
4683.59375,0.00391546,-0.20431980
4687.5,0.01757593,-0.18714838
4691.40625,0.02331902,-0.16639724
4695.3125,0.01384435,-0.15413390
4699.21875,0.01573391,-0.15377238
4703.125,0.01766468,-0.16303518
4707.03125,0.02548791,-0.17604269
4710.9375,-0.00403731,-0.18427008
4714.84375,0.02593388,-0.18240614
4718.75,0.00627995,-0.17394458
4722.65625,0.02229918,-0.16698204
4726.5625,0.02585967,-0.16443017
4730.46875,-0.00044327,-0.16193339
4734.375,0.02982169,-0.15637757
4738.28125,0.01714541,-0.15251096
4742.1875,0.00992540,-0.15833852
4746.09375,0.03783916,-0.17521945
4750.0,0.00113676,-0.19350360
4753.90625,-0.00178173,-0.19991824
4757.8125,0.01865799,-0.19145575
4761.71875,0.02162188,-0.17896108
4765.625,0.01377984,-0.17474978
4769.53125,0.02337185,-0.18024622
4773.4375,-0.01185580,-0.18817481
4777.34375,0.02855410,-0.19364704
4781.25,0.01876372,-0.19760673
4785.15625,0.00373214,-0.19983780
4789.0625,0.00237701,-0.19649248
4792.96875,0.02248834,-0.18687986
4796.875,0.02177336,-0.17599493
4800.78125,0.00918293,-0.16834058
4804.6875,0.01850190,-0.16394673
4808.59375,0.01769282,-0.16071732
4812.5,0.03031562,-0.15685685
4816.40625,0.00621567,-0.15153858
4820.3125,0.02954408,-0.14653435
4824.21875,0.01836691,-0.14717902
4828.125,0.01699600,-0.16019325
4832.03125,0.02120327,-0.18971875
4835.9375,0.00590148,-0.23336454
4839.84375,-0.01070072,-0.28201815
4843.75,-0.02107219,-0.32701761
4847.65625,0.00065895,-0.36697853
4851.5625,-0.04322692,-0.40291801
4855.46875,-0.01739844,-0.42573479
4859.375,-0.03692224,-0.40910399
4863.28125,0.00265877,-0.31283662
4867.1875,0.01943828,-0.09464552
4871.09375,0.10313040,0.27374047
4875.0,0.19841972,0.79312712
4878.90625,0.32467642,1.43216491
4882.8125,0.44127420,2.13072872
4886.71875,0.57948303,2.80878973
4890.625,0.70288479,3.38205028
4894.53125,0.74524176,3.78083110
4898.4375,0.80956292,3.96114135
4902.34375,0.77325922,3.90500903
4906.25,0.74143463,3.61818695
4910.15625,0.63087380,3.12947178
4914.0625,0.53161210,2.48939419
4917.96875,0.37601259,1.76550853
4921.875,0.23659280,1.03182566
4925.78125,0.12809274,0.35400933
4929.6875,0.00233528,-0.22281092
4933.59375,-0.08650243,-0.67998528
4937.5,-0.13978359,-1.02403593
4941.40625,-0.18018766,-1.27393568
4945.3125,-0.21433534,-1.44167030
4949.21875,-0.25909030,-1.52524662
4953.125,-0.23092550,-1.52214944
4957.03125,-0.22046137,-1.44458520
4960.9375,-0.19547899,-1.31817055
4964.84375,-0.17039913,-1.17012882
4968.75,-0.14539340,-1.02194464
4972.65625,-0.12559070,-0.88915277
4976.5625,-0.08147361,-0.78076285
4980.46875,-0.08372698,-0.69455063
4984.375,-0.06854395,-0.61598796
4988.28125,-0.05715264,-0.52897644
4992.1875,-0.03114077,-0.43076915
4996.09375,-0.00465103,-0.33502847
5000.0,-0.00381517,-0.25955987
5003.90625,0.02021122,-0.21128859
5007.8125,0.00883664,-0.18269487
5011.71875,0.00648223,-0.16291542
5015.625,0.03399982,-0.15150934
5019.53125,0.01526704,-0.15753981
5023.4375,0.03269101,-0.18357921
5027.34375,-0.00713452,-0.21511634
5031.25,0.00458556,-0.23024413
5035.15625,0.01429617,-0.21884111
5039.0625,0.00828933,-0.19020650
5042.96875,0.02381096,-0.16424157
5046.875,0.02185527,-0.15653773
5050.78125,0.02360940,-0.16739689
5054.6875,0.01030930,-0.18159305
5058.59375,0.01053299,-0.18132646
5062.5,0.01302822,-0.16309564
5066.40625,0.03865443,-0.14160670
5070.3125,0.01722988,-0.13540111
5074.21875,0.03156242,-0.14906475
5078.125,0.01062965,-0.17023651
5082.03125,0.00332803,-0.18346827
5085.9375,0.02175765,-0.18525061
5089.84375,0.03168050,-0.18286130
5093.75,-0.00000834,-0.18106318
5097.65625,0.01344352,-0.17740671
5101.5625,0.02728441,-0.16966049
5105.46875,0.01650181,-0.15977521
5109.375,0.01600888,-0.15086710
5113.28125,0.02877383,-0.14561133
5117.1875,0.02144025,-0.14590773
5121.09375,0.02162434,-0.15088072
5125.0,0.01340359,-0.15734027
5128.90625,0.02267550,-0.16413885
5132.8125,0.01328028,-0.17351490
5136.71875,0.03632985,-0.18540810
5140.625,-0.01773927,-0.19345137
5144.53125,0.02062179,-0.19182184
5148.4375,0.02799808,-0.18321395
5152.34375,0.00782954,-0.17371343
5156.25,0.02632823,-0.16281262
5160.15625,0.01060204,-0.14493203
5164.0625,0.02749387,-0.12013853
5167.96875,0.03893417,-0.09961597
5171.875,0.01622121,-0.09911455
5175.78125,0.04570989,-0.12565835
5179.6875,0.01869293,-0.16788934
5183.59375,-0.01012034,-0.20097333
5187.5,0.01397223,-0.20671268
5191.40625,0.02034651,-0.18872486
5195.3125,0.02143523,-0.16493598
5199.21875,0.01847138,-0.14871746
5203.125,0.02320228,-0.14034578
5207.03125,0.01625945,-0.13297346
5210.9375,0.03447876,-0.12310479
5214.84375,0.02233641,-0.11619715
5218.75,0.01673505,-0.12417660
5222.65625,0.04035998,-0.15542589
5226.5625,0.00295104,-0.20299104
5230.46875,-0.00438359,-0.24410118
5234.375,0.00992469,-0.25580159
5238.28125,-0.01253287,-0.23235551
5242.1875,0.02409582,-0.18950024
5246.09375,0.01435650,-0.15371329
5250.0,0.04323681,-0.14271984
5253.90625,0.00668632,-0.15160117
5257.8125,0.00354220,-0.16045551
5261.71875,0.02595532,-0.15773334
5265.625,0.02537370,-0.15109795
5269.53125,0.02570646,-0.15312469
5273.4375,0.01067287,-0.16307749
5277.34375,0.01056089,-0.16825762
5281.25,0.02410403,-0.16009612
5285.15625,0.01561993,-0.14392620
5289.0625,0.02435169,-0.13343343
5292.96875,0.03089762,-0.13766938
5296.875,0.01393888,-0.15222676
5300.78125,0.02416043,-0.16196762
5304.6875,-0.00580065,-0.15489057
5308.59375,0.03635671,-0.13530010
5312.5,0.03551876,-0.12069023
5316.40625,0.01926783,-0.12379020
5320.3125,0.01447998,-0.14108378
5324.21875,0.01854772,-0.15982635
5328.125,0.01907813,-0.17149174
5332.03125,0.01357597,-0.17758600
5335.9375,0.00348953,-0.18793960
5339.84375,0.00941302,-0.21568389
5343.75,0.01256044,-0.26905054
5347.65625,-0.03526954,-0.34359816
5351.5625,-0.02923135,-0.42188993
5355.46875,-0.04065046,-0.47786400
5359.375,-0.04312695,-0.47761253
5363.28125,-0.01208400,-0.37936464
5367.1875,0.00279014,-0.14220585
5371.09375,0.09281404,0.25622022
5375.0,0.20461681,0.80516267
5378.90625,0.32415670,1.46097136
5382.8125,0.45214632,2.15929604
5386.71875,0.57601845,2.82825398
5390.625,0.69160128,3.39797306
5394.53125,0.76120406,3.80731201
5398.4375,0.80066735,4.00792646
5402.34375,0.79234785,3.96802449
5406.25,0.74516916,3.68006659
5410.15625,0.64535451,3.17033148
5414.0625,0.52233845,2.50049543
5417.96875,0.35852945,1.75367355
5421.875,0.24310754,1.01049197
5425.78125,0.11463550,0.33111125
5429.6875,-0.00421626,-0.24861760
5433.59375,-0.09967452,-0.71413857
5437.5,-0.14683750,-1.06809366
5441.40625,-0.19997227,-1.32164204
5445.3125,-0.23210128,-1.48349631
5449.21875,-0.25333276,-1.55676699
5453.125,-0.24818729,-1.54584658
5457.03125,-0.23466940,-1.46543908
5460.9375,-0.20683050,-1.34312785
5464.84375,-0.16826159,-1.21025336
5468.75,-0.16037469,-1.08556533
5472.65625,-0.16062139,-0.96908015
5476.5625,-0.10624054,-0.85441005
5480.46875,-0.08217460,-0.74117744
5484.375,-0.07873031,-0.63153100
5488.28125,-0.06411742,-0.52371114
5492.1875,-0.03288557,-0.41743782
5496.09375,-0.01170900,-0.32175568
5500.0,-0.00607120,-0.25132737
5503.90625,0.01496270,-0.21376996
5507.8125,0.00004751,-0.20105593
5511.71875,0.00561160,-0.19499533
5515.625,-0.00232026,-0.18392138
5519.53125,0.02154564,-0.17355132
5523.4375,0.01347192,-0.17811659
5527.34375,0.01831869,-0.20012395
5531.25,-0.01515214,-0.22257318
5535.15625,-0.00917741,-0.22465713
5539.0625,0.01658715,-0.20316640
5542.96875,0.01946146,-0.17429784
5546.875,0.00702547,-0.15665568
5550.78125,0.00830176,-0.15715238
5554.6875,0.02055149,-0.17003079
5558.59375,0.00199846,-0.18336296
5562.5,0.01182540,-0.18824317
5566.40625,0.00007604,-0.18662943
5570.3125,0.00432599,-0.19010440
5574.21875,0.02116933,-0.20755547
5578.125,-0.00969468,-0.23256543
5582.03125,0.00212993,-0.24505106
5585.9375,-0.01887283,-0.22825058
5589.84375,0.01472717,-0.18511873
5593.75,0.01318807,-0.13764593
5597.65625,0.04529144,-0.10873194
5601.5625,0.00588860,-0.10414162
5605.46875,0.01329644,-0.11333138
5609.375,0.02357067,-0.12554243
5613.28125,0.01858076,-0.13947777
5617.1875,0.00693838,-0.15796156
5621.09375,0.02509920,-0.17949343
5625.0,-0.02249658,-0.19812787
5628.90625,0.01583080,-0.21007864
5632.8125,0.00102208,-0.21634203
5636.71875,0.00048019,-0.21731368
5640.625,-0.00289050,-0.20968315
5644.53125,0.01356365,-0.19159871
5648.4375,-0.00298972,-0.16809462
5652.34375,0.01106524,-0.15011992
5656.25,0.02989712,-0.14781104
5660.15625,0.00033213,-0.16219854
5664.0625,0.01006392,-0.18290004
5667.96875,0.00149439,-0.19504252
5671.875,-0.00726218,-0.18996893
5675.78125,0.01539984,-0.17218134
5679.6875,0.02302279,-0.15609525
5683.59375,0.00015738,-0.15376388
5687.5,0.00869214,-0.16598606
5691.40625,0.00623589,-0.18435188
5695.3125,-0.00108525,-0.19794683
5699.21875,0.01761494,-0.19793744
5703.125,-0.01648573,-0.18093896
5707.03125,0.02536140,-0.15283212
5710.9375,0.00080573,-0.12895256
5714.84375,0.02834696,-0.12601751
5718.75,0.01307060,-0.14944410
5722.65625,0.00597091,-0.18686174
5726.5625,-0.01340621,-0.21607949
5730.46875,-0.00921286,-0.22239822
5734.375,0.01460402,-0.20824292
5738.28125,-0.00249269,-0.18643677
5742.1875,0.01688036,-0.16809233
5746.09375,-0.00936059,-0.15840267
5750.0,0.01884565,-0.15877165
5753.90625,0.00555282,-0.16713251
5757.8125,0.01044988,-0.17696504
5761.71875,-0.00511880,-0.18149467
5765.625,0.00024124,-0.18108043
5769.53125,0.01129778,-0.18282792
5773.4375,0.00702801,-0.19003798
5777.34375,-0.00663062,-0.19507451
5781.25,0.00729654,-0.18695143
5785.15625,-0.01312225,-0.16581689
5789.0625,0.02878849,-0.14675364
5792.96875,0.01121483,-0.14673086
5796.875,-0.00172954,-0.16864681
5800.78125,0.00050245,-0.20026748
5804.6875,-0.00829018,-0.22593510
5808.59375,0.00490860,-0.23558927
5812.5,-0.02927329,-0.22733808
5816.40625,0.00324141,-0.20876391
5820.3125,0.02356715,-0.19345687
5824.21875,-0.02252532,-0.19087070
5828.125,0.00379224,-0.20127676
5832.03125,-0.00669695,-0.22036850
5835.9375,-0.00537939,-0.24356779
5839.84375,-0.02279881,-0.26745501
5843.75,-0.00492245,-0.29211211
5847.65625,-0.04259686,-0.32113820
5851.5625,-0.02625182,-0.35655802
5855.46875,-0.03273340,-0.39120224
5859.375,-0.04162427,-0.40138254
5863.28125,-0.01940023,-0.34403482
5867.1875,-0.00907360,-0.16422705
5871.09375,0.07531714,0.18429776
5875.0,0.14978844,0.71178168
5878.90625,0.30628896,1.37612021
5882.8125,0.44321567,2.09406829
5886.71875,0.53914696,2.77236009
5890.625,0.66938853,3.33264899
5894.53125,0.74161685,3.71928668
5898.4375,0.75687504,3.89849377
5902.34375,0.76423895,3.85496664
5906.25,0.71309286,3.58973432
5910.15625,0.62968922,3.12445116
5914.0625,0.49502894,2.50586390
5917.96875,0.36891389,1.79874289
5921.875,0.24787928,1.07132328
5925.78125,0.11119819,0.38646606
5929.6875,-0.02233935,-0.20313855
5933.59375,-0.09588554,-0.66569251
5937.5,-0.14908083,-0.99964821
5941.40625,-0.18259291,-1.22552299
5945.3125,-0.23358694,-1.36496961
5949.21875,-0.24033821,-1.42939365
5953.125,-0.24251601,-1.42689550
5957.03125,-0.21765111,-1.37370050
5960.9375,-0.21316904,-1.29419720
5964.84375,-0.18876973,-1.20897210
5968.75,-0.18771625,-1.12289464
5972.65625,-0.15468906,-1.02497160
5976.5625,-0.14387697,-0.90107590
5980.46875,-0.11239324,-0.74986571
5984.375,-0.07666390,-0.58916980
5988.28125,-0.04861103,-0.44701326
5992.1875,-0.03390443,-0.34473833
5996.09375,-0.02860722,-0.28593895
6000.0,0.00156664,-0.25679511
6003.90625,-0.03270890,-0.23562321
6007.8125,-0.01218593,-0.20811658
6011.71875,0.00998011,-0.17724220
6015.625,-0.00071891,-0.15611699
6019.53125,-0.00144168,-0.15258670
6023.4375,0.00945171,-0.16317339
6027.34375,-0.01042801,-0.17746602
6031.25,-0.00980443,-0.18510215
6035.15625,-0.00564615,-0.18145970
6039.0625,0.02143992,-0.16816553
6042.96875,-0.01661056,-0.14955570
6046.875,-0.00850737,-0.13328046
6050.78125,0.02634090,-0.13138296
6054.6875,0.00350841,-0.14990354
6058.59375,-0.00460774,-0.17719108
6062.5,-0.02415336,-0.19259003
6066.40625,0.00024670,-0.18823434
6070.3125,-0.00229020,-0.17551480
6074.21875,0.00958836,-0.16920836
6078.125,-0.01238805,-0.17115217
6082.03125,-0.01054359,-0.17223985
6085.9375,0.00788200,-0.16601352
6089.84375,-0.01429755,-0.15559398
6093.75,0.01665974,-0.14835815
6097.65625,-0.00493462,-0.14679883
6101.5625,0.00219778,-0.14609979
6105.46875,-0.01017809,-0.14153628
6109.375,0.01738320,-0.13614234
6113.28125,-0.01029677,-0.13758238
6117.1875,0.01272146,-0.14830562
6121.09375,-0.00968016,-0.16142219
6125.0,0.00129713,-0.16618343
6128.90625,-0.01414011,-0.15716645
6132.8125,0.00561940,-0.13890238
6136.71875,0.01522007,-0.12191497
6140.625,-0.01018199,-0.11517519
6144.53125,0.01827556,-0.12230358
6148.4375,-0.00292835,-0.14078736
6152.34375,-0.01318862,-0.16255130
6156.25,-0.00108051,-0.17908461
6160.15625,-0.00988659,-0.18761119
6164.0625,-0.00171534,-0.18982901
6167.96875,-0.01073040,-0.18604080
6171.875,-0.02396718,-0.17555699
6175.78125,0.01016753,-0.16307825
6179.6875,-0.00220945,-0.15840113
6183.59375,-0.00938993,-0.16626275
6187.5,0.00203064,-0.17898850
6191.40625,-0.02211351,-0.18153912
6195.3125,-0.00846243,-0.16547571
6199.21875,0.00279841,-0.13935988
6203.125,0.01100082,-0.12340754
6207.03125,-0.00361883,-0.13129202
6210.9375,0.00445106,-0.15680964
6214.84375,-0.02732973,-0.17871581
6218.75,-0.00647138,-0.17940339
6222.65625,0.00416282,-0.15859920
6226.5625,0.00965728,-0.12896489
6230.46875,-0.02088748,-0.10430149
6234.375,0.01259325,-0.09587942
6238.28125,0.02333736,-0.11020724
6242.1875,-0.00441676,-0.14020991
6246.09375,-0.02776712,-0.16526631
6250.0,0.00116095,-0.16866782
6253.90625,0.00079813,-0.15170288
6257.8125,-0.01267704,-0.12964228
6261.71875,0.00938355,-0.11980145
6265.625,0.01423781,-0.13035487
6269.53125,-0.01998978,-0.15330526
6273.4375,-0.02068553,-0.17186828
6277.34375,-0.00499751,-0.17891297
6281.25,0.00629628,-0.18245649
6285.15625,-0.02374483,-0.19131349
6289.0625,-0.01833881,-0.20302069
6292.96875,-0.01237510,-0.20801501
6296.875,-0.01922303,-0.20016189
6300.78125,-0.01236722,-0.18220560
6304.6875,0.00249797,-0.16401157
6308.59375,-0.02054947,-0.15595819
6312.5,-0.00106889,-0.16269985
6316.40625,-0.01002727,-0.18051234
6320.3125,-0.01362637,-0.19836915
6324.21875,-0.02777731,-0.20476383
6328.125,-0.00887160,-0.19747704
6332.03125,-0.00698073,-0.18582442
6335.9375,-0.02655475,-0.18372926
6339.84375,-0.01097065,-0.20322764
6343.75,-0.01789897,-0.25025398
6347.65625,-0.03848536,-0.31832224
6351.5625,-0.06200727,-0.38592753
6355.46875,-0.06024056,-0.42402339
6359.375,-0.04609620,-0.40441805
6363.28125,-0.02871454,-0.29863918
6367.1875,0.00012188,-0.07483750
6371.09375,0.06732443,0.29315013
6375.0,0.17570363,0.80747575
6378.90625,0.29370749,1.43619657
6382.8125,0.42863521,2.11995459
6386.71875,0.53077006,2.78574371
6390.625,0.65235245,3.35662556
6394.53125,0.74221647,3.76062274
6398.4375,0.75789607,3.94522142
6402.34375,0.75698102,3.89004588
6406.25,0.69019699,3.60694122
6410.15625,0.61646003,3.13093281
6414.0625,0.49945882,2.51218390
6417.96875,0.34173355,1.81000566
6421.875,0.24034335,1.08547902
6425.78125,0.09454934,0.39551380
6429.6875,-0.02970432,-0.21081869
6433.59375,-0.10904294,-0.69956481
6437.5,-0.18833326,-1.06062102
6441.40625,-0.21637259,-1.30710793
6445.3125,-0.25830957,-1.46319270
6449.21875,-0.27869883,-1.54988956
6453.125,-0.27023059,-1.57757688
6457.03125,-0.27169907,-1.54670584
6460.9375,-0.26628268,-1.45620918
6464.84375,-0.23327452,-1.31586254
6468.75,-0.18435302,-1.14983034
6472.65625,-0.17187205,-0.98454595
6476.5625,-0.13500139,-0.83472341
6480.46875,-0.12172843,-0.70318550
6484.375,-0.09547273,-0.59043682
6488.28125,-0.07281127,-0.49925157
6492.1875,-0.05080533,-0.42893496
6496.09375,-0.06062369,-0.36964178
6500.0,-0.04937225,-0.30959707
6503.90625,-0.03103345,-0.24965854
6507.8125,-0.00705514,-0.20481531
6511.71875,-0.01898977,-0.18743004
6515.625,-0.02188309,-0.19195580
6519.53125,-0.01976221,-0.19821239
6523.4375,-0.01962334,-0.18805377
6527.34375,-0.02338679,-0.16057555
6531.25,-0.00478687,-0.13474199
6535.15625,0.00748817,-0.13390440
6539.0625,-0.01174911,-0.16171044
6542.96875,-0.03252330,-0.19516309
6546.875,-0.03707922,-0.20616400
6550.78125,0.00844322,-0.18733668
6554.6875,-0.03622717,-0.15431476
6558.59375,0.01331932,-0.12844825
6562.5,-0.00951450,-0.12026989
6566.40625,-0.01697896,-0.12518671
6570.3125,-0.00509676,-0.13224511
6574.21875,-0.01509629,-0.13623981
6578.125,0.00469477,-0.13983482
6582.03125,-0.02149718,-0.14599511
6585.9375,-0.01186095,-0.15347582
6589.84375,-0.02221103,-0.16113633
6593.75,-0.00948712,-0.17176349
6597.65625,-0.00601545,-0.18600208
6601.5625,-0.03182985,-0.19472073
6605.46875,-0.03581720,-0.18636680
6609.375,-0.00401751,-0.16424572
6613.28125,-0.00671115,-0.14829975
6617.1875,-0.01056945,-0.15534563
6621.09375,-0.02493267,-0.18241313
6625.0,-0.03048389,-0.21211298
6628.90625,-0.02881291,-0.22974822
6632.8125,-0.01637217,-0.23085716
6636.71875,-0.02855152,-0.21517804
6640.625,-0.02872166,-0.18242817
6644.53125,-0.01229487,-0.13845962
6648.4375,0.00358271,-0.09907998
6652.34375,0.00666227,-0.08021704
6656.25,-0.01378184,-0.08553591
6660.15625,-0.00287190,-0.10710850
6664.0625,-0.01092827,-0.13475753
6667.96875,-0.01235316,-0.16036798
6671.875,-0.01792195,-0.17653196
6675.78125,-0.02447784,-0.17837583
6679.6875,-0.02344562,-0.16975766
6683.59375,-0.01415442,-0.16401154
6687.5,0.00050913,-0.17208338
6691.40625,-0.03353848,-0.18842568
6695.3125,-0.02405250,-0.19394341
6699.21875,-0.03140780,-0.17640305
6703.125,-0.00922469,-0.14498967
6707.03125,0.01236600,-0.12091869
6710.9375,-0.01163399,-0.11545329
6714.84375,-0.03347325,-0.12383628
6718.75,-0.01184502,-0.14082871
6722.65625,0.00649702,-0.16955930
6726.5625,-0.02740914,-0.20812164
6730.46875,-0.04573882,-0.23954850
6734.375,-0.04243863,-0.24669971
6738.28125,-0.01257428,-0.23181897
6742.1875,-0.04151779,-0.21375990
6746.09375,0.00049035,-0.20805663
6750.0,-0.04776824,-0.21264139
6753.90625,-0.02054959,-0.21199511
6757.8125,-0.03451021,-0.19432928
6761.71875,-0.00818913,-0.16423982
6765.625,-0.01430774,-0.13881133
6769.53125,-0.01110839,-0.13291365
6773.4375,-0.00986290,-0.14801441
6777.34375,-0.02874226,-0.17246465
6781.25,-0.01770641,-0.19098513
6785.15625,-0.03018806,-0.19561507
6789.0625,-0.02355273,-0.19110990
6792.96875,-0.01684191,-0.19109961
6796.875,-0.02417339,-0.20616286
6800.78125,-0.03638552,-0.23307233
6804.6875,-0.03549347,-0.25603685
6808.59375,-0.03371830,-0.25856477
6812.5,-0.03292742,-0.23472656
6816.40625,-0.03369429,-0.19265087
6820.3125,-0.00291995,-0.14957389
6824.21875,-0.00991526,-0.12144432
6828.125,-0.01723806,-0.11530901
6832.03125,-0.00561320,-0.13023534
6835.9375,-0.01947339,-0.16192922
6839.84375,-0.03708763,-0.20596205
6843.75,-0.02496817,-0.25971091
6847.65625,-0.04310010,-0.32080066
6851.5625,-0.08581886,-0.38204697
6855.46875,-0.04014409,-0.42659906
6859.375,-0.06795505,-0.42328888
6863.28125,-0.06998784,-0.32772568
6867.1875,0.00864089,-0.09736522
6871.09375,0.06280119,0.28922236
6875.0,0.15982480,0.82331461
6878.90625,0.29448491,1.46621418
6882.8125,0.41830826,2.15530753
6886.71875,0.53973019,2.81577706
6890.625,0.64821392,3.37301993
6894.53125,0.72431982,3.76270676
6898.4375,0.75637937,3.93975163
6902.34375,0.73044831,3.88379478
6906.25,0.70417410,3.59914541
6910.15625,0.59665966,3.11346221
6914.0625,0.47396439,2.47673321
6917.96875,0.34930947,1.75567436
6921.875,0.19514398,1.02147365
6925.78125,0.07134842,0.33499709
6929.6875,-0.02561395,-0.26195157
6933.59375,-0.12609725,-0.74333555
6937.5,-0.20413572,-1.09320748
6941.40625,-0.24975577,-1.31143451
6945.3125,-0.22853354,-1.42170727
6949.21875,-0.28266618,-1.46236336
6953.125,-0.24754995,-1.46443951
6957.03125,-0.27281865,-1.43839538
6960.9375,-0.24139726,-1.37830520
6964.84375,-0.22881150,-1.27600920
6968.75,-0.21235251,-1.13485074
6972.65625,-0.17584181,-0.97522175
6976.5625,-0.12071532,-0.82588977
6980.46875,-0.13207957,-0.70555043
6984.375,-0.11382737,-0.61353040
6988.28125,-0.07801424,-0.53822917
6992.1875,-0.08000166,-0.46877110
6996.09375,-0.06512616,-0.39962631
7000.0,-0.06316438,-0.33320650
7003.90625,-0.02595453,-0.27931666
7007.8125,-0.02401395,-0.24551418
7011.71875,-0.05783530,-0.22823374
7015.625,-0.01732432,-0.21776044
7019.53125,-0.02679905,-0.20793787
7023.4375,-0.02364709,-0.19678310
7027.34375,-0.03099628,-0.18410178
7031.25,-0.01862777,-0.17338054
7035.15625,-0.01327618,-0.17051774
7039.0625,-0.03078943,-0.17696074
7042.96875,-0.02090270,-0.18749993
7046.875,-0.02130073,-0.19563048
7050.78125,-0.03058469,-0.19793540
7054.6875,-0.02734149,-0.19399133
7058.59375,-0.02198991,-0.18500154
7062.5,-0.01036952,-0.17216259
7066.40625,-0.02877954,-0.15627205
7070.3125,-0.02040425,-0.14128071
7074.21875,-0.00815402,-0.13631162
7078.125,-0.00351148,-0.14813283
7082.03125,-0.03817899,-0.17162155
7085.9375,-0.01779215,-0.19240342
7089.84375,-0.02327078,-0.19796085
7093.75,-0.02702635,-0.18446690
7097.65625,-0.02912814,-0.15862994
7101.5625,0.00038323,-0.13588943
7105.46875,-0.00797203,-0.13025336
7109.375,-0.02340504,-0.14210331
7113.28125,-0.01892350,-0.15897171
7117.1875,-0.02110029,-0.16836056
7121.09375,-0.02250080,-0.16759436
7125.0,-0.01005946,-0.16323738
7128.90625,-0.02571816,-0.16384771
7132.8125,-0.01110395,-0.17249316
7136.71875,-0.03731196,-0.18429802
7140.625,-0.01672243,-0.19083470
7144.53125,-0.02119145,-0.18721499
7148.4375,-0.02667626,-0.17557605
7152.34375,-0.01451371,-0.16271028
7156.25,-0.01793238,-0.15429358
7160.15625,-0.02344460,-0.15119790
7164.0625,-0.00327750,-0.15109470
7167.96875,-0.02090196,-0.15153660
7171.875,-0.02164435,-0.15165153
7175.78125,-0.02581291,-0.15442581
7179.6875,-0.00590075,-0.16594985
7183.59375,-0.00766846,-0.18632130
7187.5,-0.04769217,-0.20264784
7191.40625,-0.03017972,-0.19928524
7195.3125,-0.01476536,-0.17547688
7199.21875,-0.00746561,-0.14632599
7203.125,-0.01274774,-0.12722574
7207.03125,-0.02006142,-0.12324720
7210.9375,-0.00103432,-0.13162157
7214.84375,-0.02491786,-0.14731359
7218.75,-0.01734534,-0.16517499
7222.65625,-0.01841535,-0.18018393
7226.5625,-0.01687889,-0.18692346
7230.46875,-0.02965362,-0.18051858
7234.375,-0.02154885,-0.16121832
7238.28125,-0.00972325,-0.13737553
7242.1875,-0.00593557,-0.12060153
7246.09375,-0.00812233,-0.11746769
7250.0,-0.01222609,-0.12646693
7253.90625,-0.02116080,-0.14108206
7257.8125,-0.01005758,-0.15394685
7261.71875,-0.01821630,-0.15972921
7265.625,-0.01607373,-0.15755239
7269.53125,-0.01230572,-0.15199159
7273.4375,-0.02756320,-0.15064003
7277.34375,-0.01076213,-0.15898436
7281.25,-0.00404972,-0.17464572
7285.15625,-0.03693599,-0.18568008
7289.0625,-0.02130020,-0.17936763
7292.96875,-0.02187345,-0.15599304
7296.875,0.00176673,-0.13112329
7300.78125,-0.01607497,-0.12263647
7304.6875,-0.01000555,-0.13640039
7308.59375,-0.00837635,-0.16179968
7312.5,-0.02668689,-0.17817874
7316.40625,-0.03322016,-0.17013130
7320.3125,-0.00386459,-0.14218211
7324.21875,-0.00225123,-0.11702618
7328.125,-0.00793718,-0.11689010
7332.03125,-0.01025743,-0.14702575
7335.9375,-0.03184316,-0.19542617
7339.84375,-0.03722029,-0.24573269
7343.75,-0.03628954,-0.29049602
7347.65625,-0.03860845,-0.33223507
7351.5625,-0.06125047,-0.37201414
7355.46875,-0.06851553,-0.39887419
7359.375,-0.05746914,-0.38887915
7363.28125,-0.02629424,-0.30850503
7367.1875,-0.02334172,-0.11840184
7371.09375,0.06180476,0.21706812
7375.0,0.14330146,0.71336651
7378.90625,0.25859302,1.35072458
7382.8125,0.42462888,2.06979632
7386.71875,0.52690786,2.78215408
7390.625,0.65339381,3.39058328
7394.53125,0.74022245,3.81048012
7398.4375,0.77062964,3.98797250
7402.34375,0.73923230,3.90877986
7406.25,0.69938755,3.59304070
7410.15625,0.59970498,3.08414435
7414.0625,0.47086984,2.44096732
7417.96875,0.34032950,1.73038316
7421.875,0.20138738,1.01618063
7425.78125,0.09296940,0.35011482
7429.6875,-0.02973917,-0.23010640
7433.59375,-0.12379652,-0.70037180
7437.5,-0.18119216,-1.05196381
7441.40625,-0.22728123,-1.29184771
7445.3125,-0.25219935,-1.43673825
7449.21875,-0.25896168,-1.50383449
7453.125,-0.27879277,-1.50577354
7457.03125,-0.26533860,-1.45399463
7460.9375,-0.22709228,-1.36429644
7464.84375,-0.22617324,-1.25427663
7468.75,-0.18398504,-1.13472617
7472.65625,-0.19284417,-1.00745356
7476.5625,-0.14098226,-0.87356752
7480.46875,-0.12718819,-0.74203444
7484.375,-0.09801856,-0.62753659
7488.28125,-0.07210200,-0.53905195
7492.1875,-0.08519692,-0.47186628
7496.09375,-0.06734559,-0.41327584
7500.0,-0.03950182,-0.35562325
7503.90625,-0.04578608,-0.30091032
7507.8125,-0.02327766,-0.25404915
7511.71875,-0.02109138,-0.21563898
7515.625,-0.03166924,-0.18284003
7519.53125,-0.00604014,-0.15667602
7523.4375,-0.00716931,-0.14537793
7527.34375,-0.00968092,-0.15710074
7531.25,-0.02119542,-0.18950981
7535.15625,-0.02046600,-0.22714576
7539.0625,-0.03064508,-0.24875541
7542.96875,-0.03827741,-0.24082419
7546.875,-0.01778814,-0.20869286
7550.78125,-0.00453670,-0.17344375
7554.6875,-0.01615147,-0.15471752
7558.59375,-0.00598278,-0.15638921
7562.5,-0.01962855,-0.16810478
7566.40625,-0.01827418,-0.17802718
7570.3125,-0.01788873,-0.18296865
7574.21875,0.00199830,-0.18580151
7578.125,-0.02628535,-0.18473080
7582.03125,-0.02067190,-0.17125991
7585.9375,-0.00313885,-0.14181840
7589.84375,-0.00040222,-0.10724062
7593.75,-0.00464369,-0.08751934
7597.65625,0.01960978,-0.09641191
7601.5625,-0.01325626,-0.12835643
7605.46875,-0.01143691,-0.16015400
7609.375,-0.01839175,-0.16946836
7613.28125,-0.01521520,-0.15374179
7617.1875,0.00989728,-0.13020894
7621.09375,0.00156273,-0.11760236
7625.0,-0.01505485,-0.12001156
7628.90625,0.00494601,-0.12872659
7632.8125,-0.02196729,-0.13541068
7636.71875,0.01136031,-0.14015050
7640.625,-0.01512606,-0.14806533
7644.53125,-0.00064026,-0.16087107
7648.4375,-0.02606782,-0.17393374
7652.34375,-0.00818280,-0.18218075
7656.25,-0.01505816,-0.18682939
7660.15625,-0.01276653,-0.19359660
7664.0625,-0.01119479,-0.20415707
7667.96875,-0.03008342,-0.21280693
7671.875,-0.02956891,-0.21464939
7675.78125,0.00699382,-0.21293694
7679.6875,-0.02362538,-0.21214712
7683.59375,-0.03629053,-0.20886578
7687.5,-0.00401961,-0.19739221
7691.40625,-0.00922680,-0.17911409
7695.3125,-0.00719522,-0.15985785
7699.21875,-0.01448617,-0.14362764
7703.125,-0.00076118,-0.13413465
7707.03125,0.00221300,-0.13740429
7710.9375,-0.01131916,-0.15673862
7714.84375,-0.00366797,-0.18565096
7718.75,-0.03190132,-0.20991363
7722.65625,-0.01155552,-0.21909548
7726.5625,-0.01921339,-0.21526204
7730.46875,-0.02195192,-0.20891590
7734.375,0.00338341,-0.20697719
7738.28125,-0.03383198,-0.20597176
7742.1875,-0.00499377,-0.19744357
7746.09375,-0.02446556,-0.17893414
7750.0,0.00559383,-0.15789825
7753.90625,-0.00596762,-0.14514878
7757.8125,0.00340724,-0.14534134
7761.71875,-0.01055832,-0.15335560
7765.625,-0.02466950,-0.15987065
7769.53125,0.02193595,-0.15944603
7773.4375,-0.00906471,-0.15151392
7777.34375,-0.02049107,-0.13798234
7781.25,0.00652401,-0.12496355
7785.15625,0.01877506,-0.12071701
7789.0625,-0.00613355,-0.12594272
7792.96875,-0.01196637,-0.13235722
7796.875,0.00189295,-0.13450783
7800.78125,0.00474391,-0.13589709
7804.6875,0.00584262,-0.14022183
7808.59375,-0.00923225,-0.14274289
7812.5,-0.00565799,-0.13522059
7816.40625,0.00017333,-0.11776723
7820.3125,0.01871656,-0.10194930
7824.21875,0.00993589,-0.10107713
7828.125,-0.01324348,-0.12039702
7832.03125,-0.00252726,-0.15825859
7835.9375,-0.00058604,-0.21117404
7839.84375,-0.02324373,-0.27266920
7843.75,-0.05914218,-0.33213875
7847.65625,-0.03253257,-0.38038123
7851.5625,-0.05110826,-0.41240788
7855.46875,-0.04909489,-0.42052820
7859.375,-0.04592087,-0.38608971
7863.28125,-0.03076940,-0.27900693
7867.1875,0.00898495,-0.06609850
7871.09375,0.09088401,0.27659401
7875.0,0.16917363,0.75510001
7878.90625,0.27557972,1.35366774
7882.8125,0.39694446,2.03046584
7886.71875,0.55922079,2.71576142
7890.625,0.64617229,3.32223415
7894.53125,0.73842102,3.76554656
7898.4375,0.77674985,3.98312974
7902.34375,0.77473718,3.94484353
7906.25,0.71941245,3.65570879
7910.15625,0.61532223,3.15147185
7914.0625,0.49420291,2.49024820
7917.96875,0.37861776,1.74530804
7921.875,0.19623260,0.99713242
7925.78125,0.09237576,0.31736118
7929.6875,-0.02499271,-0.25119492
7933.59375,-0.10625080,-0.70204967
7937.5,-0.14994416,-1.05191767
7941.40625,-0.22363359,-1.31670475
7945.3125,-0.25998819,-1.49664247
7949.21875,-0.27397189,-1.58267033
7953.125,-0.25545454,-1.57360792
7957.03125,-0.25267941,-1.48539317
7960.9375,-0.23859614,-1.34848428
7964.84375,-0.18894151,-1.19851589
7968.75,-0.15216826,-1.06157136
7972.65625,-0.15751323,-0.94181746
7976.5625,-0.13647728,-0.82628322
7980.46875,-0.09436454,-0.70369858
7984.375,-0.08486170,-0.57678491
7988.28125,-0.05163151,-0.45960769
7992.1875,-0.03276975,-0.36732033
7996.09375,-0.02778979,-0.30540866
8000.0,-0.02182486,-0.26595923
8003.90625,-0.02689887,-0.23685771
8007.8125,0.00153768,-0.21415374
8011.71875,0.00837679,-0.20018427
8015.625,-0.02016099,-0.19142830
8019.53125,-0.00834037,-0.17845027
8023.4375,0.00646503,-0.15981649
8027.34375,0.00431704,-0.14665177
8031.25,0.01617360,-0.14883636
8035.15625,-0.00988935,-0.16156952
8039.0625,-0.00046589,-0.16933079
8042.96875,0.00238468,-0.16078439
8046.875,0.00293075,-0.13758089
8050.78125,0.01638168,-0.11167850
8054.6875,0.01309250,-0.09700570
8058.59375,0.02123761,-0.10057747
8062.5,0.00288172,-0.11788694
8066.40625,-0.00268469,-0.13827431
8070.3125,0.01390350,-0.15585966
8074.21875,0.00897583,-0.17154680
8078.125,-0.00968684,-0.18413103
8082.03125,-0.01013168,-0.18653214
8085.9375,0.00667201,-0.17373212
8089.84375,0.01610283,-0.14948136
8093.75,-0.00772152,-0.12361234
8097.65625,0.02600416,-0.10616998
8101.5625,0.01168989,-0.10351049
8105.46875,0.00492432,-0.11663445
8109.375,0.01920602,-0.14114143
8113.28125,0.00580248,-0.16645184
8117.1875,-0.01255650,-0.17784001
8121.09375,-0.00077816,-0.16779216
8125.0,0.01542225,-0.14647135
8128.90625,0.01584858,-0.13441631
8132.8125,-0.00037236,-0.14420551
8136.71875,0.00336024,-0.17206344
8140.625,0.00458124,-0.20319666
8144.53125,-0.01807283,-0.22095525
8148.4375,-0.00380669,-0.21620350
8152.34375,-0.00259946,-0.19444853
8156.25,0.01499967,-0.17249194
8160.15625,-0.01058202,-0.16469213
8164.0625,0.01478144,-0.17159012
8167.96875,0.00298771,-0.18011069
8171.875,0.00312255,-0.17461351
8175.78125,-0.01721331,-0.15290166
8179.6875,0.02454216,-0.13320786
8183.59375,0.03350706,-0.13854004
8187.5,-0.01316684,-0.17128441
8191.40625,0.00035246,-0.20920119
8195.3125,-0.02172345,-0.22720186
8199.21875,0.00614190,-0.21740812
8203.125,0.00759747,-0.18900841
8207.03125,0.00858080,-0.15685378
8210.9375,-0.01121644,-0.13502483
8214.84375,0.03181265,-0.13506284
8218.75,0.01802676,-0.15796383
8222.65625,-0.01362617,-0.18666141
8226.5625,-0.00286337,-0.19738388
8230.46875,0.00327630,-0.18287104
8234.375,0.00608965,-0.15980865
8238.28125,0.02808678,-0.15169670
8242.1875,-0.00612351,-0.16607456
8246.09375,0.00054358,-0.18884662
8250.0,0.00388266,-0.19858596
8253.90625,0.00418107,-0.18367511
8257.8125,0.00673896,-0.14843890
8261.71875,0.01205120,-0.10965899
8265.625,0.03049256,-0.08845134
8269.53125,0.02541146,-0.09905792
8273.4375,0.01370413,-0.13903259
8277.34375,-0.00931159,-0.18938796
8281.25,-0.00316531,-0.22695470
8285.15625,-0.00299117,-0.23871735
8289.0625,0.00685578,-0.22565413
8292.96875,-0.00534973,-0.19618286
8296.875,0.00110676,-0.16035596
8300.78125,0.01920983,-0.13013639
8304.6875,0.02496422,-0.11881392
8308.59375,0.00709626,-0.13377760
8312.5,0.02776505,-0.16784057
8316.40625,-0.02535812,-0.19997807
8320.3125,0.00915270,-0.21006878
8324.21875,0.00186956,-0.19550952
8328.125,0.01775916,-0.17165980
8332.03125,0.00513584,-0.15763231
8335.9375,0.00667694,-0.16518138
8339.84375,0.00485389,-0.19822097
8343.75,-0.01144060,-0.25546396
8347.65625,-0.01191292,-0.32939649
8351.5625,-0.03560884,-0.40326175
8355.46875,-0.05270853,-0.45146543
8359.375,-0.04410454,-0.44430506
8363.28125,-0.01595340,-0.35123715
8367.1875,0.01696997,-0.14054890
8371.09375,0.08294349,0.21656178
8375.0,0.16759893,0.73153168
8378.90625,0.29661861,1.38112974
8382.8125,0.44632125,2.10174322
8386.71875,0.57159400,2.80230308
8390.625,0.68611008,3.38935971
8394.53125,0.74928582,3.79064155
8398.4375,0.78731608,3.96665168
8402.34375,0.78763151,3.90851068
8406.25,0.70903850,3.62861657
8410.15625,0.66551185,3.15420079
8414.0625,0.49429828,2.52714729
8417.96875,0.37909794,1.80217516
8421.875,0.25555164,1.04006350
8425.78125,0.10005078,0.30394280
8429.6875,-0.03296830,-0.34295985
8433.59375,-0.10975241,-0.84845763
8437.5,-0.18555063,-1.18785572
8441.40625,-0.23256780,-1.37362909
8445.3125,-0.20871191,-1.45030463
8449.21875,-0.23152368,-1.47115183
8453.125,-0.23149127,-1.46882403
8457.03125,-0.24242429,-1.44452119
8460.9375,-0.21207854,-1.38247228
8464.84375,-0.19575712,-1.27201581
8468.75,-0.16796744,-1.12053871
8472.65625,-0.14150301,-0.95335668
8476.5625,-0.09937884,-0.80140805
8480.46875,-0.08465240,-0.68275231
8484.375,-0.06513734,-0.59265929
8488.28125,-0.05129744,-0.51253337
8492.1875,-0.05341384,-0.42966482
8496.09375,-0.01518410,-0.34937617
8500.0,-0.00978736,-0.28829041
8503.90625,0.01934017,-0.25522569
8507.8125,-0.02056075,-0.24033979
8511.71875,-0.00600745,-0.22579154
8515.625,0.00980450,-0.20467621
8519.53125,0.01661151,-0.18403853
8523.4375,0.01886344,-0.17045960
8527.34375,0.01243797,-0.15950418
8531.25,0.00673033,-0.14282699
8535.15625,0.01564231,-0.12350062
8539.0625,0.03721508,-0.11855048
8542.96875,0.02677789,-0.14147413
8546.875,-0.00038752,-0.18403512
8550.78125,0.00875234,-0.21977586
8554.6875,-0.00606699,-0.22552325
8558.59375,0.00100945,-0.19945323
8562.5,0.02665999,-0.16114822
8566.40625,0.03182138,-0.13463344
8570.3125,0.00735146,-0.13017495
8574.21875,0.02454969,-0.14177282
8578.125,0.00093757,-0.15835388
8582.03125,0.02848958,-0.17299002
8585.9375,0.01115813,-0.18245153
8589.84375,0.01390286,-0.18288635
8593.75,0.00616699,-0.17036925
8597.65625,0.00909789,-0.14699346
8601.5625,0.03961733,-0.12392802
8605.46875,0.02158305,-0.11495381
8609.375,0.02441905,-0.12613273
8613.28125,0.01237116,-0.15188819
8617.1875,0.01288124,-0.17925780
8621.09375,0.01237830,-0.19529951
8625.0,0.00547154,-0.19332729
8628.90625,0.02552997,-0.17506865
8632.8125,0.00419310,-0.14852229
8636.71875,0.02529548,-0.12462462
8640.625,0.03508865,-0.11301168
8644.53125,0.02727920,-0.11623630
8648.4375,0.00414004,-0.12914246
8652.34375,0.03742412,-0.14622554
8656.25,0.00665043,-0.16607711
8660.15625,0.01434617,-0.18726514
8664.0625,0.01101549,-0.20453833
8667.96875,0.00617145,-0.21156606
8671.875,0.00461505,-0.20664322
8675.78125,0.01180672,-0.19481754
8679.6875,0.01716702,-0.18270861
8683.59375,0.01957608,-0.17138086
8687.5,-0.00015870,-0.15781792
8691.40625,0.03676248,-0.14312521
8695.3125,0.02096419,-0.13314566
8699.21875,0.01960042,-0.13012603
8703.125,0.01965354,-0.13045633
8707.03125,0.02795552,-0.13173108
8710.9375,0.02438220,-0.13585265
8714.84375,0.02164051,-0.14375840
8718.75,0.00828594,-0.15223561
8722.65625,0.02690918,-0.15800725
8726.5625,0.01837139,-0.16100766
8730.46875,0.01842664,-0.16144332
8734.375,0.01456240,-0.15679646
8738.28125,0.02340448,-0.14409086
8742.1875,0.02424709,-0.12420595
8746.09375,0.02288432,-0.10392423
8750.0,0.03940779,-0.09401401
8753.90625,0.02956126,-0.10269988
8757.8125,0.02021965,-0.12825771
8761.71875,0.02496746,-0.15824677
8765.625,-0.00114965,-0.17799751
8769.53125,0.02980608,-0.18151447
8773.4375,0.01354426,-0.17433968
8777.34375,0.00976388,-0.16658881
8781.25,0.02669011,-0.16504577
8785.15625,0.00646148,-0.17084785
8789.0625,0.02765903,-0.18079600
8792.96875,0.01114322,-0.18870661
8796.875,0.00201328,-0.18798171
8800.78125,0.01688867,-0.17725325
8804.6875,0.02949822,-0.16309518
8808.59375,0.01232393,-0.15378419
8812.5,0.02714409,-0.15051478
8816.40625,0.01830339,-0.14605655
8820.3125,0.01953994,-0.13235940
8824.21875,0.03097828,-0.11131690
8828.125,0.01870527,-0.09917358
8832.03125,0.05085244,-0.11722128
8835.9375,0.00950187,-0.17390476
8839.84375,-0.00284876,-0.25621158
8843.75,-0.02410554,-0.34080860
8847.65625,-0.02528708,-0.41131580
8851.5625,-0.02178324,-0.46096322
8855.46875,-0.05072251,-0.48096710
8859.375,-0.04516767,-0.45214662
8863.28125,-0.00418723,-0.34669295
8867.1875,0.02802737,-0.13236228
8871.09375,0.08867131,0.22116858
8875.0,0.17583011,0.72673815
8878.90625,0.30600351,1.36198604
8882.8125,0.44408661,2.06646371
8886.71875,0.57107061,2.75687861
8890.625,0.68165177,3.34800720
8894.53125,0.75818282,3.76825690
8898.4375,0.79232991,3.96777821
8902.34375,0.79053658,3.92177272
8906.25,0.74173719,3.63338923
8910.15625,0.64381343,3.13717055
8914.0625,0.50793284,2.49556684
8917.96875,0.38988301,1.78293300
8921.875,0.24918254,1.06573188
8925.78125,0.12200698,0.39233506
8929.6875,0.01376461,-0.20498551
8933.59375,-0.07579766,-0.70282012
8937.5,-0.16429760,-1.08284867
8941.40625,-0.19708301,-1.33564007
8945.3125,-0.22906953,-1.46757817
8949.21875,-0.24880330,-1.50334883
8953.125,-0.19883917,-1.47858536
8957.03125,-0.22751294,-1.42296386
8960.9375,-0.21549402,-1.34715986
8964.84375,-0.17674257,-1.24725914
8968.75,-0.16090813,-1.11931956
8972.65625,-0.13799644,-0.96921015
8976.5625,-0.10305350,-0.81376320
8980.46875,-0.07409848,-0.67384678
8984.375,-0.05597273,-0.56269026
8988.28125,-0.03298771,-0.47903278
8992.1875,-0.03727938,-0.41179487
8996.09375,-0.02595970,-0.35193703
9000.0,0.01222432,-0.29956985
9003.90625,-0.01034440,-0.25949910
9007.8125,0.01486629,-0.23262064
9011.71875,0.00702793,-0.21419427
9015.625,-0.00202994,-0.20005654
9019.53125,0.02391494,-0.19252546
9023.4375,0.02777562,-0.19647330
9027.34375,-0.00956772,-0.20938003
9031.25,0.00882921,-0.22109048
9035.15625,0.02054926,-0.22383243
9039.0625,-0.00523208,-0.21730688
9042.96875,0.02545668,-0.20545833
9046.875,-0.00696162,-0.19304925
9050.78125,0.03694259,-0.18409836
9054.6875,0.00633305,-0.17961818
9058.59375,0.02084444,-0.17664623
9062.5,0.00212591,-0.17214715
9066.40625,0.03529736,-0.16781153
9070.3125,0.01352851,-0.16899750
9074.21875,0.00806217,-0.18007737
9078.125,0.02078109,-0.20098558
9082.03125,0.01581686,-0.22413293
9085.9375,-0.01592901,-0.23590328
9089.84375,0.01180536,-0.22806795
9093.75,0.02183183,-0.20655172
9097.65625,0.00785304,-0.18382166
9101.5625,0.02154461,-0.16620570
9105.46875,0.01595088,-0.15264775
9109.375,0.02884979,-0.14166121
9113.28125,0.01283043,-0.13567443
9117.1875,0.03769644,-0.13951899
9121.09375,0.01199829,-0.15536326
9125.0,0.01844038,-0.17866406
9128.90625,0.01364888,-0.19899437
9132.8125,0.00516866,-0.20549910
9136.71875,0.01762901,-0.19382256
9140.625,0.01125559,-0.16977048
9144.53125,0.02931911,-0.14575683
9148.4375,0.01821161,-0.13224341
9152.34375,0.03047472,-0.13095511
9156.25,0.03020645,-0.13383116
9160.15625,0.01415157,-0.12869452
9164.0625,0.01734950,-0.11053805
9167.96875,0.05208613,-0.08878086
9171.875,0.03145112,-0.07996057
9175.78125,0.02287366,-0.09316189
9179.6875,0.04069116,-0.12348384
9183.59375,0.01104602,-0.15641953
9187.5,0.00041835,-0.17905159
9191.40625,0.03162837,-0.19025224
9195.3125,0.01479828,-0.19759750
9199.21875,-0.00044994,-0.20462567
9203.125,0.01009916,-0.20700593
9207.03125,0.02025050,-0.19951080
9210.9375,0.00646478,-0.18097323
9214.84375,0.02013603,-0.15499353
9218.75,0.02743249,-0.13000658
9222.65625,0.02524698,-0.11629846
9226.5625,0.03266732,-0.12021877
9230.46875,0.00108515,-0.14149714
9234.375,0.04666152,-0.17387618
9238.28125,-0.00729416,-0.20470832
9242.1875,0.00943826,-0.21738058
9246.09375,0.00382290,-0.20158947
9250.0,0.02595744,-0.16273321
9253.90625,0.02161542,-0.11958530
9257.8125,0.03525326,-0.09273041
9261.71875,0.03089235,-0.09251125
9265.625,0.02842406,-0.11308878
9269.53125,0.01809278,-0.13673976
9273.4375,0.02353015,-0.14641526
9277.34375,0.01502085,-0.13723285
9281.25,0.03198431,-0.11828370
9285.15625,0.02709578,-0.10430025
9289.0625,0.03450968,-0.10450239
9292.96875,0.02074111,-0.11778867
9296.875,0.01680743,-0.13718902
9300.78125,0.02592553,-0.15677424
9304.6875,0.01292631,-0.17288122
9308.59375,0.01559968,-0.18140014
9312.5,0.00740875,-0.17834459
9316.40625,0.02477352,-0.16347820
9320.3125,0.02088507,-0.14169195
9324.21875,0.00946457,-0.12239877
9328.125,0.04120196,-0.11823443
9332.03125,0.02172582,-0.13926245
9335.9375,0.00877452,-0.18541694
9339.84375,-0.00489783,-0.24768007
9343.75,-0.01213378,-0.31643665
9347.65625,-0.01393530,-0.38371035
9351.5625,-0.04327357,-0.43727008
9355.46875,-0.04189276,-0.45761657
9359.375,-0.02699987,-0.42081463
9363.28125,-0.00147104,-0.30015266
9367.1875,0.01475209,-0.06824495
9371.09375,0.11198182,0.29397908
9375.0,0.20419425,0.78802365
9378.90625,0.30057907,1.39558053
9382.8125,0.42640617,2.07615685
9386.71875,0.57896906,2.76351523
9390.625,0.68935615,3.37373066
9394.53125,0.75616699,3.82421732
9398.4375,0.80361748,4.04846668
9402.34375,0.82159597,4.00531435
9406.25,0.72662741,3.69071484
9410.15625,0.64974809,3.14526057
9414.0625,0.50515258,2.44646096
9417.96875,0.35898340,1.68818951
9421.875,0.22684778,0.95584434
9425.78125,0.09285638,0.30592397
9429.6875,0.01439732,-0.24002659
9433.59375,-0.08475175,-0.68388784
9437.5,-0.14963523,-1.03268611
9441.40625,-0.19417246,-1.28886557
9445.3125,-0.23722173,-1.45331514
9449.21875,-0.23907839,-1.53304374
9453.125,-0.24513960,-1.54324591
9457.03125,-0.23309769,-1.50095975
9460.9375,-0.22397332,-1.41783071
9464.84375,-0.20725073,-1.30045629
9468.75,-0.16295682,-1.15626359
9472.65625,-0.14668827,-0.99695170
9476.5625,-0.12018085,-0.83788788
9480.46875,-0.07602843,-0.69527882
9484.375,-0.06461278,-0.57961655
9488.28125,-0.04841835,-0.48895553
9492.1875,-0.03545220,-0.41150889
9496.09375,-0.02162956,-0.33713779
9500.0,0.00169981,-0.26599467
9503.90625,-0.00758180,-0.20752653
9507.8125,0.02267557,-0.17277503
9511.71875,0.02316217,-0.16493335
9515.625,-0.00679192,-0.17521235
9519.53125,0.00624449,-0.18987335
9523.4375,0.02286606,-0.19968525
9527.34375,0.00298526,-0.19996688
9531.25,-0.00687904,-0.18883964
9535.15625,0.01632979,-0.17202015
9539.0625,0.02990114,-0.16205122
9542.96875,-0.00691789,-0.16620325
9546.875,0.02566620,-0.17918888
9550.78125,-0.00344011,-0.18986340
9554.6875,0.00203915,-0.19222534
9558.59375,0.01756849,-0.18964972
9562.5,0.00796518,-0.18922298
9566.40625,0.00553804,-0.19269082
9570.3125,0.00724388,-0.19513538
9574.21875,-0.01060583,-0.19290742
9578.125,0.02917876,-0.18938525
9582.03125,0.00614438,-0.18939926
9585.9375,-0.00143417,-0.19110766
9589.84375,-0.00270389,-0.19014521
9593.75,0.01763107,-0.18961836
9597.65625,0.01449311,-0.19731085
9601.5625,-0.01048448,-0.21282110
9605.46875,0.00470078,-0.22435087
9609.375,-0.00699215,-0.21960181
9613.28125,0.01519217,-0.19674745
9617.1875,0.00247477,-0.16541885
9621.09375,0.01754258,-0.14002714
9625.0,0.01806918,-0.13120146
9628.90625,0.02342040,-0.13917358
9632.8125,0.00548505,-0.15359645
9636.71875,0.00432637,-0.16246052
9640.625,0.01193842,-0.16282527
9644.53125,0.02134754,-0.16120628
9648.4375,0.00526528,-0.16385415
9652.34375,0.00426006,-0.16974756
9656.25,0.02158983,-0.17267090
9660.15625,-0.01223235,-0.16762246
9664.0625,0.02745894,-0.15604167
9667.96875,0.00810986,-0.14542510
9671.875,0.01361527,-0.14223218
9675.78125,0.02275915,-0.14519657
9679.6875,-0.00075758,-0.14690515
9683.59375,0.01237001,-0.14246516
9687.5,0.02368975,-0.13512135
9691.40625,0.01295074,-0.13151295
9695.3125,0.01838561,-0.13401146
9699.21875,0.00089820,-0.14128707
9703.125,0.01796357,-0.15352106
9707.03125,0.01138571,-0.17129388
9710.9375,0.00392009,-0.18960476
9714.84375,-0.00708445,-0.19850327
9718.75,0.01384020,-0.19152431
9722.65625,-0.00426768,-0.17148557
9726.5625,0.01235204,-0.14894143
9730.46875,0.02592146,-0.13611749
9734.375,0.00385779,-0.13942358
9738.28125,0.01248895,-0.15606169
9742.1875,-0.00538641,-0.17830539
9746.09375,0.01714713,-0.19968642
9750.0,-0.01743111,-0.21657610
9753.90625,0.00760006,-0.22630149
9757.8125,-0.00676965,-0.22532909
9761.71875,-0.00473038,-0.21036115
9765.625,-0.00470715,-0.18358086
9769.53125,0.02635452,-0.15573606
9773.4375,-0.00415923,-0.14004396
9777.34375,0.02385050,-0.14231193
9781.25,0.00545645,-0.15712453
9785.15625,-0.00184175,-0.17231689
9789.0625,0.00564428,-0.17822659
9792.96875,0.00412132,-0.17486861
9796.875,0.00457822,-0.17050728
9800.78125,0.01822363,-0.17246941
9804.6875,-0.01462326,-0.17902018
9808.59375,0.00926991,-0.18113624
9812.5,0.00515190,-0.17203207
9816.40625,0.01018547,-0.15406190
9820.3125,-0.00392048,-0.13841626
9824.21875,0.02631036,-0.13856336
9828.125,0.00824736,-0.15958260
9832.03125,-0.00928116,-0.19310057
9835.9375,-0.00668983,-0.22622570
9839.84375,-0.00983667,-0.25427157
9843.75,-0.02068374,-0.28196225
9847.65625,-0.01381466,-0.31513175
9851.5625,-0.04931421,-0.35358229
9855.46875,-0.01324471,-0.38635409
9859.375,-0.04801377,-0.38641512
9863.28125,-0.02679471,-0.31117895
9867.1875,0.01411922,-0.11512604
9871.09375,0.09199553,0.23404737
9875.0,0.15580085,0.74422079
9878.90625,0.29983264,1.38958275
9882.8125,0.43998533,2.10665631
9886.71875,0.55444759,2.80545354
9890.625,0.67371315,3.39222121
9894.53125,0.76736552,3.79177618
9898.4375,0.76859629,3.96116972
9902.34375,0.75998324,3.88913703
9906.25,0.71331364,3.58657432
9910.15625,0.62139273,3.08350635
9914.0625,0.49694213,2.43400693
9917.96875,0.35176003,1.71315265
9921.875,0.21715854,0.99873292
9925.78125,0.09239141,0.34878001
9929.6875,-0.00652066,-0.20950177
9933.59375,-0.07074133,-0.67163682
9937.5,-0.16755912,-1.03642619
9941.40625,-0.23346257,-1.29650950
9945.3125,-0.22202742,-1.44831574
9949.21875,-0.25907761,-1.50445342
9953.125,-0.24366170,-1.49182165
9957.03125,-0.23709643,-1.43879473
9960.9375,-0.22547914,-1.36272764
9964.84375,-0.20040993,-1.26674569
9968.75,-0.20259371,-1.14859068
9972.65625,-0.13820168,-1.01247907
9976.5625,-0.15548582,-0.87154579
9980.46875,-0.08389971,-0.73947078
9984.375,-0.08187951,-0.62005824
9988.28125,-0.08578718,-0.50644225
9992.1875,-0.04265790,-0.39428604
9996.09375,-0.01300766,-0.29375947
10000.0,-0.00399587,-0.22221026
10003.90625,-0.01056612,-0.18603018
10007.8125,-0.00447920,-0.17446569
10011.71875,-0.00442044,-0.17062031
10015.625,0.00584752,-0.16610965
10019.53125,-0.00601134,-0.16527152
10023.4375,0.00646593,-0.17586575
10027.34375,-0.01599107,-0.19589730
10031.25,0.00413044,-0.21048427
10035.15625,-0.01696714,-0.20318571
10039.0625,-0.01465841,-0.17229371
10042.96875,0.01614763,-0.13666382
10046.875,0.00215083,-0.12288272
10050.78125,0.02316857,-0.14266078
10054.6875,-0.01337871,-0.18066446
10058.59375,-0.02392400,-0.20651247
10062.5,-0.01418412,-0.20300871
10066.40625,0.00963217,-0.18226944
10070.3125,0.00706766,-0.17074384
10074.21875,-0.01928512,-0.18089354
10078.125,-0.00890673,-0.20143101
10082.03125,-0.00072675,-0.21019782
10085.9375,-0.00800192,-0.19132403
10089.84375,-0.02881297,-0.14763942
10093.75,0.02926077,-0.10464776
10097.65625,0.02302192,-0.09472797
10101.5625,0.00721548,-0.12685879
10105.46875,-0.01572212,-0.17405443
10109.375,-0.02488376,-0.19659640
10113.28125,0.00623102,-0.17778848
10117.1875,0.00357232,-0.13631296
10121.09375,0.01032873,-0.10650782
10125.0,0.01223037,-0.10866836
10128.90625,-0.00711547,-0.13649167
10132.8125,-0.00776483,-0.16938664
10136.71875,-0.00215456,-0.19202746
10140.625,-0.00753846,-0.19955772
10144.53125,-0.01884200,-0.19111225
10148.4375,-0.00450684,-0.16864513
10152.34375,0.01127056,-0.14085464
10156.25,-0.00386097,-0.12028196
10160.15625,-0.00070847,-0.11534943
10164.0625,0.01877670,-0.12641427
10167.96875,-0.01232820,-0.14658524
10171.875,-0.00504139,-0.16580780
10175.78125,-0.00816161,-0.17719927
10179.6875,-0.00578868,-0.18016925
10183.59375,-0.00089274,-0.17736365
10187.5,-0.01814851,-0.17066003
10191.40625,-0.00743157,-0.16092913
10195.3125,0.02206463,-0.14834057
10199.21875,-0.01899797,-0.13145758
10203.125,-0.00233176,-0.11132249
10207.03125,0.01141705,-0.09754943
10210.9375,0.01950932,-0.10193700
10214.84375,0.00405166,-0.12296850
10218.75,-0.01860880,-0.14405710
10222.65625,-0.01002106,-0.15086891
10226.5625,0.00968079,-0.14491427
10230.46875,0.00918151,-0.13690412
10234.375,-0.01368806,-0.13335225
10238.28125,-0.00753714,-0.13540187
10242.1875,0.01037134,-0.14477728
10246.09375,-0.01987544,-0.16274346
10250.0,0.01141823,-0.18436962
10253.90625,-0.03047968,-0.19881557
10257.8125,-0.02108392,-0.19797260
10261.71875,-0.00058442,-0.18460506
10265.625,-0.00180698,-0.16907114
10269.53125,-0.02113064,-0.15798770
10273.4375,0.01458515,-0.14879984
10277.34375,-0.01810299,-0.13495854
10281.25,-0.00350525,-0.11614967
10285.15625,0.01469638,-0.10373068
10289.0625,-0.00181423,-0.11219399
10292.96875,0.00630133,-0.14326411
10296.875,-0.02293413,-0.18166836
10300.78125,-0.01545975,-0.20793737
10304.6875,-0.02477898,-0.21350189
10308.59375,-0.00604666,-0.20317473
10312.5,-0.00972501,-0.18631187
10316.40625,-0.01825160,-0.16930245
10320.3125,-0.00163012,-0.15579650
10324.21875,-0.01581925,-0.14906737
10328.125,0.00433500,-0.15102793
10332.03125,-0.00688149,-0.16052151
10335.9375,-0.02251737,-0.17570522
10339.84375,-0.01210842,-0.19918147
10343.75,-0.02686864,-0.23801671
10347.65625,-0.02035474,-0.29529092
10351.5625,-0.06320757,-0.36135495
10355.46875,-0.04523986,-0.41264439
10359.375,-0.05870308,-0.41525966
10363.28125,-0.04958735,-0.32933560
10367.1875,0.01365416,-0.11600915
10371.09375,0.05780224,0.25184926
10375.0,0.16377549,0.77635163
10378.90625,0.28819948,1.42340624
10382.8125,0.42601293,2.12411761
10386.71875,0.54654580,2.79240036
10390.625,0.64336538,3.34692025
10394.53125,0.73684478,3.72541690
10398.4375,0.74741834,3.89058614
10402.34375,0.73538548,3.82939363
10406.25,0.68576139,3.54823995
10410.15625,0.61201894,3.07131433
10414.0625,0.47285166,2.44414306
10417.96875,0.35148528,1.73283827
10421.875,0.20904137,1.01282990
10425.78125,0.07711209,0.35093299
10429.6875,-0.02831228,-0.21231152
10433.59375,-0.09372190,-0.66923505
10437.5,-0.17079850,-1.03139901
10441.40625,-0.22951087,-1.30567646
10445.3125,-0.25890678,-1.48395693
10449.21875,-0.29416710,-1.55600500
10453.125,-0.25214559,-1.52937555
10457.03125,-0.25433153,-1.43387985
10460.9375,-0.22961132,-1.30755866
10464.84375,-0.19850290,-1.18024182
10468.75,-0.19613555,-1.06657410
10472.65625,-0.14324081,-0.96664166
10476.5625,-0.15978606,-0.86980855
10480.46875,-0.12167159,-0.76243997
10484.375,-0.10519259,-0.63884032
10488.28125,-0.08556767,-0.50820947
10492.1875,-0.04459069,-0.39112180
10496.09375,-0.03996871,-0.30707547
10500.0,-0.02878230,-0.26235732
10503.90625,-0.03945529,-0.24797601
10507.8125,-0.02143187,-0.24781227
10511.71875,-0.04247479,-0.24863937
10515.625,-0.01136151,-0.24502665
10519.53125,-0.03615475,-0.23754948
10523.4375,-0.02465673,-0.22798689
10527.34375,-0.02981173,-0.21681516
10531.25,-0.01039636,-0.20374991
10535.15625,-0.02917547,-0.18921293
10539.0625,-0.00945292,-0.17530337
10542.96875,-0.00881299,-0.16450685
10546.875,-0.03404468,-0.15794840
10550.78125,0.00140120,-0.15689345
10554.6875,-0.00775757,-0.16295518
10558.59375,-0.02304790,-0.17344843
10562.5,-0.02219079,-0.18083146
10566.40625,-0.01760454,-0.18024041
10570.3125,-0.01229709,-0.17437179
10574.21875,-0.01354450,-0.16956268
10578.125,-0.02535013,-0.17013091
10582.03125,-0.00691179,-0.17647520
10585.9375,-0.02171008,-0.18419398
10589.84375,-0.01899326,-0.18436597
10593.75,-0.02525841,-0.17016739
10597.65625,-0.00604295,-0.14628997
10601.5625,-0.00646613,-0.12833223
10605.46875,-0.00166156,-0.12916340
10609.375,-0.02510015,-0.14718638
10613.28125,-0.01646126,-0.17028412
10617.1875,-0.00939602,-0.18854496
10621.09375,-0.02921098,-0.19991207
10625.0,-0.03128052,-0.20665096
10628.90625,-0.01086964,-0.20998357
10632.8125,-0.02839088,-0.20681050
10636.71875,-0.02013280,-0.19194557
10640.625,-0.02798682,-0.16622093
10644.53125,-0.00108958,-0.14042284
10648.4375,-0.00857288,-0.12732182
10652.34375,-0.01356592,-0.13031310
10656.25,-0.00501601,-0.14095448
10660.15625,-0.01560474,-0.14560924
10664.0625,-0.02347304,-0.13517842
10667.96875,0.00921671,-0.11283739
10671.875,-0.02417415,-0.09372365
10675.78125,0.02595258,-0.09429531
10679.6875,-0.02426168,-0.11879941
10683.59375,-0.00774586,-0.15540814
10687.5,-0.03824926,-0.18661396
10691.40625,-0.01194948,-0.20246029
10695.3125,-0.02122988,-0.20275110
10699.21875,-0.02283718,-0.19060746
10703.125,-0.02013226,-0.16960412
10707.03125,-0.02247694,-0.14736100
10710.9375,-0.01072574,-0.13690543
10714.84375,0.00455440,-0.14877704
10718.75,-0.02534869,-0.17965885
10722.65625,-0.04025336,-0.21225150
10726.5625,-0.02754171,-0.22914781
10730.46875,-0.02034885,-0.22463913
10734.375,-0.02969892,-0.20385738
10738.28125,-0.01399747,-0.17660756
10742.1875,-0.02559571,-0.15339687
10746.09375,-0.00575882,-0.14220278
10750.0,-0.01599697,-0.14492725
10753.90625,-0.01269360,-0.15658095
10757.8125,-0.02356250,-0.16894549
10761.71875,-0.01709815,-0.17605405
10765.625,-0.02745994,-0.17726611
10769.53125,-0.01045080,-0.17565331
10773.4375,-0.01857926,-0.17315111
10777.34375,-0.03065787,-0.16826436
10781.25,-0.00324831,-0.15941809
10785.15625,-0.02363083,-0.14835364
10789.0625,-0.01077401,-0.13908699
10792.96875,-0.01810708,-0.13562731
10796.875,-0.00187969,-0.14055760
10800.78125,-0.02228277,-0.15342240
10804.6875,-0.02141262,-0.17002773
10808.59375,-0.01574189,-0.18370296
10812.5,-0.03211573,-0.18839933
10816.40625,-0.01960467,-0.18369520
10820.3125,-0.01276189,-0.17677614
10824.21875,-0.02389558,-0.17555529
10828.125,-0.02263334,-0.18007277
10832.03125,-0.02661016,-0.18476368
10835.9375,-0.01863507,-0.18909936
10839.84375,-0.02635165,-0.20209792
10843.75,-0.02760820,-0.23490806
10847.65625,-0.05412481,-0.29059693
10851.5625,-0.04425605,-0.36005133
10855.46875,-0.07061423,-0.42117977
10859.375,-0.06108983,-0.43696037
10863.28125,-0.06012253,-0.35838008
10867.1875,-0.02665832,-0.14011754
10871.09375,0.06896101,0.23785257
10875.0,0.14386582,0.76033020
10878.90625,0.29284060,1.38516879
10882.8125,0.38966429,2.05759215
10886.71875,0.51905954,2.71602678
10890.625,0.62814850,3.29061937
10894.53125,0.72491282,3.70865703
10898.4375,0.74658048,3.91148734
10902.34375,0.73657006,3.86990690
10906.25,0.69814318,3.58830380
10910.15625,0.58278394,3.10081244
10914.0625,0.47826764,2.46323109
10917.96875,0.35999650,1.74336588
10921.875,0.19088866,1.01230454
10925.78125,0.05310291,0.33214772
10929.6875,-0.01802828,-0.25788566
10933.59375,-0.11648301,-0.74156588
10937.5,-0.21277647,-1.11199355
10941.40625,-0.23559181,-1.36461627
10945.3125,-0.28977841,-1.50346029
10949.21875,-0.26681477,-1.54654455
10953.125,-0.26247334,-1.51996648
10957.03125,-0.27868125,-1.44627976
10960.9375,-0.23344186,-1.34010732
10964.84375,-0.21926647,-1.21276808
10968.75,-0.18776631,-1.07593727
10972.65625,-0.16115390,-0.93991745
10976.5625,-0.15209486,-0.81147903
10980.46875,-0.11352030,-0.69523847
10984.375,-0.09958764,-0.59514058
10988.28125,-0.07495743,-0.51116675
10992.1875,-0.07780018,-0.43666765
10996.09375,-0.08086438,-0.36603615
11000.0,-0.01072841,-0.30494627
11003.90625,-0.04509289,-0.26471871
11007.8125,-0.03844551,-0.24682935
11011.71875,-0.05032246,-0.24163449
11015.625,-0.00741763,-0.24029066
11019.53125,-0.03960813,-0.23912585
11023.4375,-0.04253666,-0.23549958
11027.34375,-0.03005820,-0.22765274
11031.25,-0.01759649,-0.21602035
11035.15625,-0.02092948,-0.19965377
11039.0625,-0.04574372,-0.17610434
11042.96875,-0.00533408,-0.14884758
11046.875,-0.00118176,-0.12811640
11050.78125,-0.01178022,-0.11975913
11054.6875,-0.02067351,-0.11963857
11058.59375,-0.01688922,-0.12255134
11062.5,0.00820841,-0.12978955
11066.40625,-0.02980796,-0.14423247
11070.3125,-0.01294463,-0.16316502
11074.21875,-0.01867224,-0.17794837
11078.125,-0.02560865,-0.17826223
11082.03125,-0.02069886,-0.16022241
11085.9375,-0.02199650,-0.13531052
11089.84375,0.00537392,-0.12618157
11093.75,-0.00884407,-0.14496955
11097.65625,-0.03093817,-0.17711937
11101.5625,-0.03261990,-0.19419450
11105.46875,-0.02240359,-0.18248715
11109.375,-0.00524936,-0.15347573
11113.28125,-0.01618971,-0.12832534
11117.1875,-0.01039744,-0.11915990
11121.09375,-0.00404694,-0.12394810
11125.0,-0.02272106,-0.13183029
11128.90625,-0.00797984,-0.13198194
11132.8125,-0.01398271,-0.12177934
11136.71875,-0.00331974,-0.10870544
11140.625,-0.01387206,-0.10390267
11144.53125,0.00576033,-0.11260698
11148.4375,-0.02039729,-0.12989464
11152.34375,-0.01641018,-0.14694168
11156.25,-0.02744795,-0.16229837
11160.15625,-0.01152772,-0.18379092
11164.0625,-0.01499253,-0.21583043
11167.96875,-0.04529012,-0.24745296
11171.875,-0.04085718,-0.25864172
11175.78125,-0.03361942,-0.23937248
11179.6875,-0.02788889,-0.19988742
11183.59375,0.00125889,-0.16202864
11187.5,-0.02023660,-0.14139859
11191.40625,-0.02035125,-0.13793702
11195.3125,-0.01358707,-0.14237344
11199.21875,-0.01516764,-0.14796691
11203.125,-0.00469675,-0.15344185
11207.03125,-0.02075731,-0.15759280
11210.9375,-0.02684936,-0.15734516
11214.84375,-0.01309548,-0.15337373
11218.75,-0.00569867,-0.15247512
11222.65625,-0.01724572,-0.15976740
11226.5625,-0.02701985,-0.17152475
11230.46875,-0.01561518,-0.17936096
11234.375,-0.02161990,-0.17968103
11238.28125,-0.02808207,-0.17720535
11242.1875,-0.00438989,-0.17966826
11246.09375,-0.02708602,-0.18884538
11250.0,-0.02460389,-0.19798580
11253.90625,-0.03128178,-0.20001547
11257.8125,-0.02130444,-0.19578880
11261.71875,-0.00923474,-0.19079441
11265.625,-0.03211039,-0.18615252
11269.53125,-0.01349185,-0.17741165
11273.4375,-0.02050459,-0.16184242
11277.34375,-0.02789968,-0.14441432
11281.25,0.01366729,-0.13534637
11285.15625,-0.01613515,-0.13949028
11289.0625,-0.01382331,-0.14865316
11292.96875,-0.03737399,-0.14934939
11296.875,0.01314287,-0.13795540
11300.78125,-0.01421171,-0.12374590
11304.6875,-0.01440898,-0.11935559
11308.59375,-0.00302717,-0.13229132
11312.5,-0.01845887,-0.16094223
11316.40625,-0.01637384,-0.19328609
11320.3125,-0.03235046,-0.21223107
11324.21875,-0.02437980,-0.20757723
11328.125,-0.02510677,-0.18529418
11332.03125,-0.00902497,-0.16490510
11335.9375,-0.00441002,-0.16562355
11339.84375,-0.04247870,-0.19403486
11343.75,-0.02474900,-0.24491879
11347.65625,-0.03783478,-0.30872595
11351.5625,-0.05587524,-0.37224403
11355.46875,-0.06518960,-0.41391194
11359.375,-0.05960920,-0.40318939
11363.28125,-0.04740824,-0.30502400
11367.1875,0.01960044,-0.08546741
11371.09375,0.04820701,0.28070626
11375.0,0.16374029,0.79732698
11378.90625,0.29458877,1.43574512
11382.8125,0.41915593,2.13697290
11386.71875,0.54234457,2.82448316
11390.625,0.66417611,3.41640449
11394.53125,0.73457384,3.83612847
11398.4375,0.77947187,4.02536392
11402.34375,0.76410788,3.95677423
11406.25,0.69806510,3.63978744
11410.15625,0.60500222,3.11717916
11414.0625,0.48671740,2.45524168
11417.96875,0.32912979,1.72994077
11421.875,0.20629902,1.01019001
11425.78125,0.09179744,0.34575427
11429.6875,-0.03266005,-0.23258136
11433.59375,-0.11539467,-0.70653152
11437.5,-0.18459114,-1.06752396
11441.40625,-0.22810391,-1.31745350
11445.3125,-0.27178013,-1.46912801
11449.21875,-0.26889485,-1.54368389
11453.125,-0.25882828,-1.56077528
11457.03125,-0.28065562,-1.52675962
11460.9375,-0.26778841,-1.43776226
11464.84375,-0.22056445,-1.29819012
11468.75,-0.19192298,-1.13066328
11472.65625,-0.16220903,-0.96434057
11476.5625,-0.12942296,-0.81708533
11480.46875,-0.12758012,-0.69082379
11484.375,-0.09101530,-0.58157945
11488.28125,-0.06794681,-0.48973876
11492.1875,-0.05440213,-0.41827101
11496.09375,-0.05910342,-0.36496970
11500.0,-0.04709955,-0.32254648
11503.90625,-0.03275510,-0.28562614
11507.8125,-0.02083552,-0.25239629
11511.71875,-0.02134873,-0.21940050
11515.625,-0.03186550,-0.18140650
11519.53125,-0.00358800,-0.14042541
11523.4375,0.00115320,-0.11021090
11527.34375,0.01089130,-0.10570151
11531.25,-0.01897677,-0.12872012
11535.15625,-0.01484344,-0.16674006
11539.0625,-0.00664139,-0.20241873
11542.96875,-0.02869746,-0.22127952
11546.875,-0.02453121,-0.21663620
11550.78125,-0.02667700,-0.19540790
11554.6875,-0.00028640,-0.17677633
11558.59375,-0.00744247,-0.17670842
11562.5,-0.01993269,-0.19160050
11566.40625,-0.02955103,-0.20149711
11570.3125,-0.01797147,-0.19106519
11574.21875,0.00173095,-0.16411021
11578.125,-0.01162923,-0.13703427
11582.03125,0.00092115,-0.12305871
11585.9375,-0.01238036,-0.12505580
11589.84375,0.00605645,-0.13885607
11593.75,-0.01756123,-0.15843104
11597.65625,-0.01391845,-0.17839545
11601.5625,-0.01074951,-0.19422197
11605.46875,-0.01989022,-0.20145048
11609.375,-0.01457103,-0.19655879
11613.28125,-0.01447933,-0.18079667
11617.1875,-0.02059757,-0.16327788
11621.09375,0.00540159,-0.15750234
11625.0,-0.00646643,-0.17030528
11628.90625,-0.02264021,-0.19307867
11632.8125,-0.02164824,-0.20721759
11636.71875,-0.01053292,-0.19972456
11640.625,-0.02167876,-0.17346816
11644.53125,0.00538768,-0.14433977
11648.4375,0.00143730,-0.12895967
11652.34375,-0.01424225,-0.13335446
11656.25,0.00193781,-0.15219930
11660.15625,-0.01902001,-0.17607918
11664.0625,-0.01048916,-0.19657627
11667.96875,-0.00846257,-0.20644802
11671.875,-0.03337174,-0.20090412
11675.78125,-0.00327065,-0.18238845
11679.6875,-0.00098981,-0.16107766
11683.59375,-0.01726524,-0.14683393
11687.5,0.00898868,-0.14170465
11691.40625,-0.00691241,-0.14050893
11695.3125,-0.01475528,-0.13685375
11699.21875,0.01209527,-0.12838100
11703.125,0.00344531,-0.11637978
11707.03125,-0.01128103,-0.10307647
11710.9375,0.01538236,-0.09275255
11714.84375,0.01482786,-0.09167612
11718.75,-0.01050900,-0.10294762
11722.65625,0.00169546,-0.12414371
11726.5625,0.01741770,-0.14933826
11730.46875,-0.03986366,-0.17056026
11734.375,0.01163443,-0.18136939
11738.28125,-0.01441879,-0.18217278
11742.1875,-0.02436937,-0.18039957
11746.09375,0.01169663,-0.18455082
11750.0,-0.01566515,-0.19616160
11753.90625,-0.02982328,-0.20743063
11757.8125,0.00210096,-0.20940067
11761.71875,-0.02585865,-0.20084907
11765.625,-0.00475525,-0.18811156
11769.53125,-0.01067152,-0.17982294
11773.4375,-0.00277100,-0.18127753
11777.34375,-0.00856491,-0.18953863
11781.25,-0.02095059,-0.19442533
11785.15625,-0.00978060,-0.18828808
11789.0625,-0.00603790,-0.17552759
11792.96875,-0.00199767,-0.16941603
11796.875,-0.00284496,-0.17753688
11800.78125,-0.01370807,-0.19137421
11804.6875,-0.01392300,-0.19240922
11808.59375,-0.00661417,-0.16984685
11812.5,-0.00757441,-0.13243508
11816.40625,0.03014006,-0.10165276
11820.3125,0.00294803,-0.09231297
11824.21875,0.00022033,-0.10160730
11828.125,0.00543611,-0.11799654
11832.03125,-0.00235706,-0.13667631
11835.9375,0.00873074,-0.16356590
11839.84375,-0.02079261,-0.20747957
11843.75,-0.02149106,-0.27180165
11847.65625,-0.04710639,-0.35165218
11851.5625,-0.04116811,-0.43259665
11855.46875,-0.05747119,-0.48712060
11859.375,-0.07765412,-0.47515333
11863.28125,-0.04307076,-0.35573027
11867.1875,0.02330104,-0.10161071
11871.09375,0.08241123,0.29569593
11875.0,0.18095599,0.82620424
11878.90625,0.28862682,1.45754981
11882.8125,0.44603392,2.13360357
11886.71875,0.55939066,2.78555679
11890.625,0.64843071,3.34663510
11894.53125,0.73204106,3.75656414
11898.4375,0.78928548,3.96178460
11902.34375,0.75506663,3.92414832
11906.25,0.72161025,3.63469100
11910.15625,0.63363665,3.12304544
11914.0625,0.47458217,2.45649195
11917.96875,0.35199738,1.72235036
11921.875,0.22308515,1.00019705
11925.78125,0.09452229,0.34434745
11929.6875,-0.01497222,-0.21635446
11933.59375,-0.09350596,-0.67188972
11937.5,-0.15842892,-1.02385521
11941.40625,-0.21103121,-1.27780974
11945.3125,-0.24864684,-1.43922865
11949.21875,-0.25248942,-1.51599467
11953.125,-0.25078347,-1.52155018
11957.03125,-0.24566911,-1.47223341
11960.9375,-0.23395547,-1.38204706
11964.84375,-0.21362716,-1.26202667
11968.75,-0.16993310,-1.12344825
11972.65625,-0.15070313,-0.97834003
11976.5625,-0.13370577,-0.83678502
11980.46875,-0.10614287,-0.70570552
11984.375,-0.06298678,-0.58901566
11988.28125,-0.07337422,-0.48808968
11992.1875,-0.04788642,-0.40535912
11996.09375,-0.02155618,-0.34626386
12000.0,-0.02372464,-0.31160238
12003.90625,-0.03817861,-0.29012728
12007.8125,-0.00486922,-0.26563141
12011.71875,-0.01742584,-0.23044284
12015.625,-0.00197235,-0.19006212
12019.53125,-0.00437873,-0.15844981
12023.4375,0.01972759,-0.14833267
12027.34375,0.00217392,-0.15962264
12031.25,-0.00895483,-0.17617521
12035.15625,0.00268181,-0.17839101
12039.0625,0.00102263,-0.16084565
12042.96875,-0.00110360,-0.13758765
12046.875,0.02228551,-0.13022892
12050.78125,0.01062746,-0.14768450
12054.6875,0.00397939,-0.17488743
12058.59375,-0.01750156,-0.18457183
12062.5,-0.00731674,-0.16400872
12066.40625,0.02864506,-0.12870188
12070.3125,0.01595762,-0.10748543
12074.21875,0.01326920,-0.11593939
12078.125,0.00974675,-0.14476857
12082.03125,-0.01442129,-0.17035617
12085.9375,0.00454060,-0.17552689
12089.84375,0.01559885,-0.16202740
12093.75,0.00893967,-0.14461166
12097.65625,-0.00219641,-0.13692266
12101.5625,0.01007615,-0.14491081
12105.46875,0.01479623,-0.16752727
12109.375,-0.00947804,-0.19787215
12113.28125,-0.00984348,-0.22630087
12117.1875,-0.00531998,-0.24610263
12121.09375,-0.01694076,-0.25613302
12125.0,-0.01145392,-0.25903705
12128.90625,-0.01027354,-0.25825027
12132.8125,-0.01414111,-0.25505081
12136.71875,-0.00417450,-0.24722534
12140.625,-0.01419863,-0.23188205
12144.53125,-0.00981073,-0.21080954
12148.4375,0.01219747,-0.19158417
12152.34375,0.00298625,-0.18084663
12156.25,0.00269553,-0.17742527
12160.15625,0.00016520,-0.17466398
12164.0625,0.00159692,-0.16887639
12167.96875,0.00558127,-0.16370024
12171.875,0.02151093,-0.16557576
12175.78125,-0.00203563,-0.17494383
12179.6875,-0.00264261,-0.18342252
12183.59375,0.00133281,-0.18112947
12187.5,0.01410785,-0.16590807
12191.40625,0.00413836,-0.14525215
12195.3125,0.02122559,-0.13029101
12199.21875,0.01353196,-0.12677367
12203.125,0.00603479,-0.13105278
12207.03125,0.01683491,-0.13581607
12210.9375,0.01944851,-0.13858619
12214.84375,-0.00599000,-0.14381778
12218.75,0.02008495,-0.15857716
12222.65625,0.01265683,-0.18459676
12226.5625,-0.00905020,-0.21163316
12230.46875,-0.00374644,-0.22172628
12234.375,-0.00656529,-0.20393829
12238.28125,0.01703470,-0.16429803
12242.1875,0.01793778,-0.12047291
12246.09375,0.02711488,-0.08843219
12250.0,0.00542772,-0.07576913
12253.90625,0.04409397,-0.08436501
12257.8125,0.01669893,-0.11186749
12261.71875,0.00572982,-0.14898036
12265.625,0.00541344,-0.18131328
12269.53125,0.00699886,-0.19730008
12273.4375,-0.00277074,-0.19420457
12277.34375,0.01789366,-0.17763734
12281.25,0.00313736,-0.15631540
12285.15625,0.01103607,-0.13761804
12289.0625,0.02537287,-0.12708376
12292.96875,0.01621055,-0.12768480
12296.875,0.01572390,-0.13683537
12300.78125,0.00326988,-0.14678869
12304.6875,0.02566714,-0.15058489
12308.59375,0.00508369,-0.14787987
12312.5,0.00990709,-0.14553569
12316.40625,0.03305338,-0.15179753
12320.3125,-0.01349121,-0.16844569
12324.21875,0.01862429,-0.18963246
12328.125,0.00740260,-0.20748298
12332.03125,-0.01191809,-0.21697195
12335.9375,0.00230625,-0.21944140
12339.84375,0.00853508,-0.22473447
12343.75,-0.01318006,-0.24698101
12347.65625,-0.00664316,-0.29556224
12351.5625,-0.03439330,-0.36728483
12355.46875,-0.03039276,-0.44088268
12359.375,-0.04386135,-0.47445315
12363.28125,-0.04720083,-0.41104364
12367.1875,0.02000957,-0.19573566
12371.09375,0.06305250,0.20127051
12375.0,0.19085641,0.76700497
12378.90625,0.31694213,1.44551849
12382.8125,0.46325517,2.15884185
12386.71875,0.57281452,2.83264422
12390.625,0.66821057,3.40325308
12394.53125,0.77389991,3.80875397
12398.4375,0.78779340,3.99011111
12402.34375,0.79509312,3.91203380
12406.25,0.72146201,3.58396912
12410.15625,0.61008757,3.05926061
12414.0625,0.49764556,2.41200852
12417.96875,0.36238387,1.71067071
12421.875,0.23960762,1.00670874
12425.78125,0.11537096,0.33927146
12429.6875,-0.01045643,-0.25664681
12433.59375,-0.09665251,-0.75021613
12437.5,-0.17545314,-1.12290061
12441.40625,-0.20396450,-1.37391579
12445.3125,-0.23534262,-1.51525950
12449.21875,-0.26541919,-1.56272280
12453.125,-0.23483920,-1.53294468
12457.03125,-0.21994366,-1.44416165
12460.9375,-0.21518569,-1.31512964
12464.84375,-0.17541569,-1.16533291
12468.75,-0.14017928,-1.01543891
12472.65625,-0.11076993,-0.88076925
12476.5625,-0.10556963,-0.76304084
12480.46875,-0.08636621,-0.65403873
12484.375,-0.05721954,-0.54926980
12488.28125,-0.02983588,-0.45465580
12492.1875,-0.02727300,-0.37900925
12496.09375,-0.01104178,-0.32357517
12500.0,-0.02245921,-0.28165299
12503.90625,0.00662947,-0.24721904
12507.8125,0.01066426,-0.22047944
12511.71875,0.00625951,-0.20380008
12515.625,0.00731567,-0.19522990
12519.53125,0.00818228,-0.18844162
12523.4375,0.01780842,-0.17787632
12527.34375,0.01227808,-0.16317317
12531.25,0.01889595,-0.14973839
12535.15625,0.02409288,-0.14497639
12539.0625,0.01180876,-0.15254001
12542.96875,0.02117893,-0.16937391
12546.875,0.00830750,-0.18763235
12550.78125,0.00909069,-0.19931725
12554.6875,0.01157896,-0.20066682
12558.59375,0.00702432,-0.19391672
12562.5,0.01174013,-0.18524729
12566.40625,0.02000751,-0.17963849
12570.3125,0.01643150,-0.17620145
12574.21875,0.00544201,-0.16984940
12578.125,0.02063064,-0.15916099
12582.03125,0.01789289,-0.15032896
12585.9375,0.02682654,-0.15103763
12589.84375,0.01296653,-0.16200277
12593.75,0.01880494,-0.17590195
12597.65625,0.00851615,-0.18340799
12601.5625,0.00760663,-0.18029293
12605.46875,0.02430247,-0.17014767
12609.375,0.02305049,-0.15981716
12613.28125,0.01870052,-0.15231320
12617.1875,0.00342790,-0.14673044
12621.09375,0.03959942,-0.14389099
12625.0,0.01543307,-0.14691725
12628.90625,0.01508362,-0.15621994
12632.8125,0.03137555,-0.16760501
12636.71875,-0.00462437,-0.17546605
12640.625,0.02686614,-0.17719066
12644.53125,0.01449014,-0.17512208
12648.4375,0.01057429,-0.17428128
12652.34375,0.03009572,-0.17824204
12656.25,0.00054653,-0.18720743
12660.15625,0.00479526,-0.19965146
12664.0625,0.03316643,-0.21363555
12667.96875,-0.01332481,-0.22464676
12671.875,0.01250096,-0.22628675
12675.78125,0.00723231,-0.21667424
12679.6875,0.01499950,-0.20068491
12683.59375,0.01246663,-0.18477255
12687.5,0.01128149,-0.17346440
12691.40625,0.02553941,-0.17004906
12695.3125,0.01819569,-0.17486988
12699.21875,0.01621619,-0.18179718
12703.125,-0.00008508,-0.18190992
12707.03125,0.02452417,-0.17353411
12710.9375,0.02921566,-0.16443075
12714.84375,0.01097500,-0.16146940
12718.75,0.02501667,-0.16161871
12722.65625,0.01568852,-0.15540311
12726.5625,0.01600263,-0.13841633
12730.46875,0.03688389,-0.11911153
12734.375,0.02971619,-0.11394271
12738.28125,0.02694406,-0.13294686
12742.1875,0.01357315,-0.16993988
12746.09375,0.01437854,-0.20635486
12750.0,0.00221197,-0.22412741
12753.90625,0.01258939,-0.21679610
12757.8125,0.01908397,-0.19111383
12761.71875,0.00803202,-0.16037020
12765.625,0.03594764,-0.13661645
12769.53125,0.02721459,-0.12568623
12773.4375,0.02524926,-0.12611991
12777.34375,0.01324735,-0.13326792
12781.25,0.04163872,-0.14348602
12785.15625,0.01717876,-0.15238720
12789.0625,0.01259614,-0.15393366
12792.96875,0.02767455,-0.14717989
12796.875,0.02643388,-0.14041620
12800.78125,0.02434741,-0.14327735
12804.6875,0.02082542,-0.15607689
12808.59375,0.02161680,-0.16900191
12812.5,0.01265038,-0.17117766
12816.40625,0.01792472,-0.16062839
12820.3125,0.03472925,-0.14561734
12824.21875,0.01901449,-0.13652293
12828.125,0.02089095,-0.13871288
12832.03125,0.03136633,-0.15313411
12835.9375,0.01202877,-0.17876025
12839.84375,0.01632819,-0.21238120
12843.75,-0.00873860,-0.24964719
12847.65625,0.00443202,-0.28825936
12851.5625,-0.00757969,-0.32703283
12855.46875,-0.01708058,-0.35812384
12859.375,-0.01457648,-0.35904971
12863.28125,-0.01148258,-0.29218271
12867.1875,0.04231347,-0.11270791
12871.09375,0.08631346,0.21764565
12875.0,0.18062644,0.71361154
12878.90625,0.30972484,1.35198081
12882.8125,0.43247819,2.06871891
12886.71875,0.57507581,2.77125359
12890.625,0.70318377,3.36248350
12894.53125,0.75287402,3.76717854
12898.4375,0.79328531,3.94563651
12902.34375,0.77400118,3.88809705
12906.25,0.73948842,3.60363698
12910.15625,0.64593929,3.11965156
12914.0625,0.52156878,2.48808765
12917.96875,0.37891743,1.78143752
12921.875,0.24814919,1.07297540
12925.78125,0.13328020,0.41577134
12929.6875,0.02400658,-0.16284223
12933.59375,-0.06750577,-0.65134621
12937.5,-0.14766377,-1.04184580
12941.40625,-0.19829094,-1.32619047
12945.3125,-0.23982422,-1.50054204
12949.21875,-0.23295791,-1.57110679
12953.125,-0.24226210,-1.55457473
12957.03125,-0.23462878,-1.47434509
12960.9375,-0.19759670,-1.35636938
12964.84375,-0.18053843,-1.22412777
12968.75,-0.15677615,-1.09318399
12972.65625,-0.12107995,-0.96898979
12976.5625,-0.11001731,-0.84907073
12980.46875,-0.10404190,-0.72975004
12984.375,-0.05454725,-0.61452508
12988.28125,-0.03238583,-0.51409030
12992.1875,-0.04802094,-0.43620843
12996.09375,-0.00274550,-0.37802178
13000.0,-0.02103977,-0.32809639
13003.90625,-0.00364644,-0.27490774
13007.8125,0.01596019,-0.21679416
13011.71875,0.01413296,-0.16571799
13015.625,0.03485480,-0.13877495
13019.53125,0.02767514,-0.14277993
13023.4375,0.01215657,-0.16619775
13027.34375,0.01294446,-0.18733263
13031.25,0.02700852,-0.19068000
13035.15625,0.00146198,-0.17628962
13039.0625,0.03449987,-0.15719128
13042.96875,0.02029228,-0.14835636
13046.875,0.02770617,-0.15403831
13050.78125,0.01851158,-0.16411182
13054.6875,0.01224210,-0.16375104
13058.59375,0.03318452,-0.14642647
13062.5,0.02079391,-0.11780989
13066.40625,0.03792559,-0.09043922
13070.3125,0.03671902,-0.07613337
13074.21875,0.05020409,-0.07913990
13078.125,0.01722525,-0.09325825
13082.03125,0.02866607,-0.10832798
13085.9375,0.03313910,-0.12066327
13089.84375,0.03346016,-0.13373503
13093.75,0.02465644,-0.14933190
13097.65625,0.00130278,-0.16400714
13101.5625,0.03191994,-0.17500362
13105.46875,0.02041520,-0.18379328
13109.375,0.00094956,-0.19242668
13113.28125,0.02835459,-0.20020086
13117.1875,0.00979251,-0.20353596
13121.09375,0.00248581,-0.19835813
13125.0,0.02025321,-0.18562385
13128.90625,0.02572032,-0.17305385
13132.8125,0.01718546,-0.16741234
13136.71875,0.01895208,-0.16692548
13140.625,0.01818583,-0.16413273
13144.53125,0.01855272,-0.15521580
13148.4375,0.02366436,-0.14582714
13152.34375,0.02448376,-0.14750108
13156.25,0.03428642,-0.16601139
13160.15625,-0.00559165,-0.19248438
13164.0625,0.01989552,-0.20853202
13167.96875,0.01018502,-0.20120157
13171.875,0.01727491,-0.17314091
13175.78125,0.02202243,-0.14124037
13179.6875,0.02806759,-0.12592663
13183.59375,0.03596994,-0.13623738
13187.5,0.01620910,-0.16122456
13191.40625,0.00762579,-0.17834495
13195.3125,0.01486399,-0.17354642
13199.21875,0.02783999,-0.15234300
13203.125,0.02955257,-0.13062730
13207.03125,0.03184591,-0.11790157
13210.9375,0.01977322,-0.11236539
13214.84375,0.02562367,-0.11068858
13218.75,0.03075439,-0.11739630
13222.65625,0.03275543,-0.14044660
13226.5625,0.01296870,-0.17840540
13230.46875,0.00935789,-0.21605992
13234.375,0.00017802,-0.23477460
13238.28125,0.00426509,-0.22708832
13242.1875,0.01861344,-0.20175853
13246.09375,0.01519397,-0.17576043
13250.0,0.02114312,-0.16137862
13253.90625,0.02579367,-0.15894806
13257.8125,0.00456904,-0.16023540
13261.71875,0.02290495,-0.15920654
13265.625,0.02400120,-0.15868446
13269.53125,0.02830765,-0.16521935
13273.4375,-0.00987443,-0.18102968
13277.34375,0.02930852,-0.20294707
13281.25,0.01468112,-0.22292629
13285.15625,-0.00970007,-0.22806652
13289.0625,0.00514336,-0.20934844
13292.96875,0.03050931,-0.17292105
13296.875,0.02083704,-0.13656013
13300.78125,0.02025554,-0.11599295
13304.6875,0.02819389,-0.11797460
13308.59375,0.03389866,-0.13955598
13312.5,0.01601861,-0.16736247
13316.40625,-0.00367408,-0.18405366
13320.3125,0.01630473,-0.18375899
13324.21875,0.03133559,-0.17837754
13328.125,0.00574946,-0.18438573
13332.03125,0.01096758,-0.20701267
13335.9375,-0.00144318,-0.23885630
13339.84375,0.00840636,-0.26866099
13343.75,-0.02373614,-0.29057565
13347.65625,-0.00377386,-0.30976263
13351.5625,-0.01576008,-0.33763334
13355.46875,-0.01114703,-0.37323722
13359.375,-0.02559878,-0.38492543
13363.28125,-0.01773661,-0.31331500
13367.1875,0.02767729,-0.09797277
13371.09375,0.10326671,0.29152131
13375.0,0.19577047,0.83980536
13378.90625,0.33846250,1.49130976
13382.8125,0.46777517,2.17218542
13386.71875,0.56622744,2.81355262
13390.625,0.68291265,3.35843205
13394.53125,0.74173295,3.75295115
13398.4375,0.79674673,3.94242048
13402.34375,0.79510421,3.88698626
13406.25,0.72054803,3.58517241
13410.15625,0.60689408,3.07887888
13414.0625,0.52198732,2.43419361
13417.96875,0.36268491,1.72115052
13421.875,0.25402623,1.00696373
13425.78125,0.08803260,0.35028866
13429.6875,0.00883731,-0.21261780
13433.59375,-0.06881338,-0.67450309
13437.5,-0.15080656,-1.04270697
13441.40625,-0.20515059,-1.31856787
13445.3125,-0.22760339,-1.49351084
13449.21875,-0.26155457,-1.56260002
13453.125,-0.24958266,-1.53977537
13457.03125,-0.21779945,-1.45872712
13460.9375,-0.19747806,-1.35463214
13464.84375,-0.20032366,-1.24371457
13468.75,-0.17339835,-1.12294102
13472.65625,-0.12542343,-0.98649502
13476.5625,-0.12970831,-0.83832401
13480.46875,-0.07322736,-0.69273126
13484.375,-0.06420977,-0.56724972
13488.28125,-0.04243070,-0.47267681
13492.1875,-0.03254984,-0.40709543
13496.09375,-0.01511217,-0.35852379
13500.0,-0.02726410,-0.31391343
13503.90625,-0.01143527,-0.26873413
13507.8125,0.01974411,-0.22839977
13511.71875,0.01233714,-0.19805434
13515.625,-0.00864905,-0.17438306
13519.53125,0.02244753,-0.15225282
13523.4375,0.01459853,-0.13483447
